-77
-49
-19
5
25
41
47
47
39
23
-11
-59
-91
-99
-95
-87
-91
-95
-103
-107
-109
-107
-107
-105
-101
-105
-105
-105
-107
-107
-105
-105
-107
-109
-109
-107
-107
-107
-107
-107
-107
-107
-107
-105
-105
-107
-111
-109
-105
-107
-105
-103
-105
-105
-105
-101
-99
-97
-97
-97
-95
-93
-93
-91
-91
-93
-93
-93
-95
-91
-89
-93
-95
-95
-95
-95
-93
-95
-97
-97
-95
-97
-97
-99
-99
-101
-101
-99
-101
-101
-99
-99
-97
-99
-99
-99
-97
-97
-99
-101
-101
-101
-99
-97
-97
-97
-97
-95
-95
-91
-87
-87
-83
-81
-83
-79
-79
-81
-83
-85
-87
-87
-85
-87
-95
-97
-99
-99
-101
-99
-99
-101
-99
-101
-99
-101
-99
-103
-113
-115
-99
-71
-33
-3
25
45
47
45
37
15
-29
-75
-99
-103
-97
-95
-103
-107
-111
-113
-113
-111
-109
-111
-111
-111
-113
-115
-113
-111
-111
-113
-113
-113
-113
-111
-111
-113
-111
-113
-113
-111
-107
-109
-109
-107
-111
-107
-105
-105
-103
-103
-101
-103
-101
-99
-99
-95
-95
-93
-97
-93
-93
-93
-93
-93
-95
-97
-95
-95
-95
-97
-97
-99
-99
-99
-99
-99
-101
-101
-105
-105
-105
-107
-107
-109
-113
-113
-109
-109
-109
-111
-111
-113
-111
-107
-107
-105
-107
-107
-107
-103
-101
-101
-101
-97
-97
-99
-95
-93
-93
-91
-85
-83
-83
-79
-83
-81
-81
-83
-87
-87
-85
-87
-93
-97
-103
-105
-103
-101
-103
-107
-105
-107
-105
-105
-105
-109
-115
-123
-125
-113
-91
-63
-35
-7
17
37
43
37
27
7
-33
-77
-103
-105
-99
-97
-101
-111
-115
-115
-113
-115
-117
-115
-115
-113
-111
-109
-111
-113
-111
-111
-113
-111
-111
-111
-109
-109
-109
-109
-109
-107
-109
-111
-107
-109
-107
-105
-105
-109
-109
-109
-105
-103
-103
-103
-105
-103
-103
-101
-99
-99
-99
-99
-103
-101
-99
-97
-99
-101
-101
-101
-103
-101
-101
-103
-101
-105
-105
-103
-103
-105
-107
-107
-107
-109
-109
-105
-107
-107
-107
-103
-105
-103
-103
-105
-103
-103
-103
-103
-99
-99
-101
-99
-101
-99
-95
-95
-93
-93
-89
-89
-83
-81
-83
-83
-83
-85
-87
-87
-87
-89
-91
-97
-103
-105
-105
-103
-105
-109
-109
-111
-109
-105
-107
-107
-109
-117
-127
-125
-105
-77
-41
-7
23
43
49
45
33
5
-41
-79
-101
-99
-95
-95
-101
-109
-111
-113
-113
-109
-109
-109
-111
-109
-109
-107
-107
-109
-111
-109
-107
-109
-109
-111
-111
-111
-111
-111
-111
-111
-113
-113
-113
-113
-111
-109
-109
-111
-109
-107
-105
-105
-101
-101
-103
-101
-101
-99
-97
-97
-99
-99
-97
-95
-95
-97
-95
-97
-99
-97
-97
-97
-95
-95
-97
-99
-97
-97
-97
-97
-101
-101
-103
-101
-103
-103
-105
-105
-105
-103
-105
-103
-103
-101
-103
-105
-103
-103
-103
-99
-101
-103
-105
-101
-101
-101
-97
-99
-101
-97
-91
-91
-87
-83
-83
-85
-85
-83
-83
-85
-87
-89
-91
-89
-95
-95
-99
-101
-105
-105
-101
-99
-103
-99
-99
-103
-103
-105
-109
-119
-117
-107
-83
-51
-19
11
33
49
53
49
45
19
-27
-71
-99
-99
-93
-91
-95
-105
-111
-113
-115
-113
-109
-109
-107
-111
-113
-113
-111
-111
-113
-113
-111
-113
-113
-109
-109
-109
-109
-111
-111
-109
-107
-109
-107
-107
-107
-105
-103
-99
-101
-99
-99
-101
-101
-97
-93
-91
-87
-89
-89
-89
-87
-87
-89
-89
-91
-91
-89
-89
-93
-91
-93
-95
-93
-91
-93
-91
-97
-97
-99
-101
-101
-101
-101
-101
-103
-103
-101
-99
-97
-101
-101
-101
-101
-99
-99
-95
-95
-97
-97
-97
-95
-91
-93
-93
-93
-91
-89
-83
-79
-79
-79
-75
-73
-73
-71
-73
-75
-75
-79
-81
-83
-87
-91
-93
-93
-91
-95
-95
-97
-97
-97
-99
-95
-99
-101
-109
-119
-117
-99
-63
-27
3
27
45
49
47
39
19
-23
-71
-97
-97
-89
-85
-89
-97
-107
-107
-107
-105
-107
-105
-103
-103
-105
-103
-103
-99
-99
-101
-103
-103
-103
-101
-99
-97
-99
-99
-101
-101
-97
-101
-101
-101
-101
-99
-99
-97
-97
-97
-95
-97
-95
-95
-93
-91
-91
-93
-91
-89
-91
-87
-87
-89
-89
-91
-91
-91
-91
-95
-95
-95
-93
-93
-93
-95
-95
-97
-97
-95
-95
-95
-97
-99
-99
-97
-95
-93
-93
-93
-95
-93
-93
-93
-93
-91
-95
-93
-93
-91
-91
-91
-93
-93
-93
-91
-89
-89
-87
-87
-87
-83
-79
-77
-75
-73
-75
-77
-77
-75
-79
-81
-81
-87
-89
-93
-93
-95
-97
-97
-99
-101
-99
-99
-99
-99
-101
-105
-109
-115
-119
-111
-87
-55
-25
3
31
47
49
47
39
15
-31
-73
-93
-91
-85
-87
-93
-99
-103
-103
-105
-107
-105
-105
-105
-105
-103
-103
-109
-103
-103
-105
-105
-103
-103
-105
-105
-103
-103
-103
-103
-105
-105
-103
-101
-103
-101
-103
-103
-103
-99
-99
-99
-97
-99
-99
-97
-93
-91
-89
-89
-89
-91
-87
-87
-85
-87
-85
-85
-87
-87
-85
-87
-89
-89
-89
-91
-89
-89
-89
-91
-93
-93
-97
-95
-95
-97
-97
-99
-99
-97
-97
-97
-97
-99
-101
-101
-99
-97
-97
-101
-99
-99
-99
-97
-97
-99
-99
-99
-97
-95
-93
-93
-93
-93
-89
-85
-81
-79
-75
-79
-79
-81
-83
-81
-81
-83
-83
-89
-93
-95
-93
-95
-99
-99
-99
-97
-97
-97
-97
-101
-105
-109
-117
-113
-101
-79
-51
-21
3
27
45
45
43
33
13
-29
-69
-99
-101
-95
-95
-97
-107
-109
-111
-111
-113
-113
-113
-111
-107
-109
-109
-109
-111
-111
-109
-107
-109
-111
-107
-107
-109
-105
-105
-107
-107
-105
-105
-105
-103
-101
-103
-103
-103
-101
-101
-97
-97
-101
-99
-101
-97
-95
-89
-91
-91
-91
-91
-89
-89
-89
-93
-93
-91
-93
-95
-93
-95
-95
-99
-97
-97
-97
-99
-101
-103
-103
-103
-103
-103
-103
-105
-107
-109
-105
-107
-107
-105
-103
-107
-105
-101
-101
-101
-101
-101
-103
-99
-97
-97
-97
-99
-99
-97
-97
-95
-93
-93
-91
-93
-91
-87
-87
-83
-81
-79
-79
-81
-79
-77
-81
-83
-85
-87
-91
-91
-95
-99
-103
-105
-103
-105
-103
-103
-105
-105
-105
-105
-107
-105
-109
-117
-123
-123
-107
-81
-51
-21
3
27
43
47
43
31
-7
-59
-93
-95
-91
-87
-91
-101
-109
-109
-109
-109
-107
-107
-105
-109
-105
-109
-107
-107
-105
-109
-111
-109
-107
-107
-109
-111
-113
-111
-109
-107
-107
-107
-111
-109
-111
-109
-107
-107
-107
-107
-109
-105
-105
-103
-103
-101
-99
-99
-99
-99
-97
-95
-97
-99
-99
-97
-97
-95
-97
-97
-97
-97
-95
-95
-95
-99
-101
-99
-97
-101
-101
-99
-101
-103
-103
-105
-103
-103
-103
-105
-107
-105
-103
-103
-101
-105
-103
-105
-103
-103
-99
-101
-105
-105
-103
-103
-101
-101
-101
-101
-101
-99
-97
-95
-91
-87
-87
-85
-81
-83
-83
-81
-83
-87
-85
-87
-87
-91
-95
-99
-101
-101
-99
-101
-99
-99
-101
-101
-99
-99
-103
-109
-119
-115
-99
-73
-39
-11
15
37
49
51
49
33
-1
-49
-87
-103
-95
-87
-91
-97
-107
-111
-111
-113
-115
-113
-113
-113
-113
-111
-111
-111
-111
-113
-113
-113
-113
-113
-111
-109
-111
-111
-111
-109
-107
-109
-107
-109
-107
-105
-103
-103
-105
-105
-105
-103
-101
-99
-97
-97
-95
-97
-93
-93
-89
-89
-89
-91
-95
-93
-91
-91
-91
-93
-97
-97
-93
-91
-99
-97
-97
-101
-101
-101
-101
-103
-103
-103
-105
-105
-103
-105
-105
-109
-107
-107
-105
-103
-105
-103
-105
-105
-101
-101
-97
-101
-99
-103
-101
-99
-97
-95
-93
-91
-95
-93
-89
-85
-85
-79
-77
-79
-77
-77
-77
-77
-79
-81
-83
-83
-85
-89
-95
-97
-97
-97
-97
-97
-99
-101
-103
-103
-103
-103
-107
-115
-121
-119
-101
-67
-31
-1
27
45
47
47
41
25
-19
-65
-97
-101
-93
-87
-93
-99
-105
-109
-109
-107
-105
-103
-103
-103
-105
-105
-103
-103
-103
-103
-105
-107
-105
-101
-103
-101
-107
-107
-105
-101
-103
-103
-105
-105
-105
-103
-103
-103
-101
-101
-101
-101
-99
-97
-97
-95
-95
-95
-97
-93
-91
-91
-93
-93
-93
-95
-93
-93
-93
-97
-97
-97
-97
-97
-93
-97
-99
-99
-99
-99
-97
-99
-97
-97
-99
-99
-97
-97
-97
-99
-99
-99
-97
-97
-97
-95
-97
-97
-97
-93
-95
-93
-93
-95
-97
-95
-91
-91
-91
-87
-87
-85
-83
-79
-77
-75
-77
-81
-83
-83
-83
-85
-87
-93
-95
-97
-99
-97
-99
-99
-101
-103
-101
-99
-97
-99
-101
-105
-111
-115
-115
-105
-81
-51
-21
7
33
51
51
49
45
27
-7
-55
-87
-95
-89
-89
-91
-97
-101
-107
-107
-107
-109
-107
-105
-103
-107
-107
-107
-109
-109
-105
-107
-109
-109
-109
-113
-111
-109
-107
-111
-111
-111
-109
-111
-107
-105
-109
-107
-107
-105
-105
-101
-101
-101
-103
-101
-101
-97
-93
-95
-93
-91
-91
-91
-89
-91
-93
-91
-89
-91
-89
-89
-91
-95
-95
-93
-91
-91
-89
-93
-95
-97
-95
-95
-97
-99
-101
-101
-103
-103
-101
-103
-101
-103
-107
-105
-103
-101
-101
-103
-105
-103
-101
-101
-99
-99
-99
-99
-101
-101
-99
-97
-99
-95
-95
-95
-93
-89
-85
-85
-81
-77
-77
-75
-75
-77
-77
-81
-81
-81
-79
-81
-89
-93
-97
-99
-97
-97
-99
-101
-101
-103
-101
-99
-103
-111
-119
-123
-111
-89
-59
-31
-5
21
41
49
45
41
21
-17
-63
-95
-103
-93
-89
-97
-105
-109
-111
-111
-111
-109
-111
-109
-109
-109
-105
-107
-109
-107
-109
-109
-107
-105
-107
-107
-107
-109
-105
-105
-105
-103
-105
-105
-107
-105
-103
-105
-103
-103
-105
-103
-101
-97
-97
-99
-99
-99
-95
-93
-93
-93
-93
-93
-93
-95
-93
-93
-95
-95
-95
-95
-93
-95
-97
-97
-97
-97
-101
-97
-97
-99
-101
-101
-101
-103
-101
-103
-101
-103
-105
-103
-99
-97
-99
-101
-101
-101
-97
-97
-97
-95
-95
-95
-97
-97
-95
-95
-95
-95
-97
-95
-93
-91
-89
-87
-89
-85
-81
-77
-79
-79
-81
-83
-83
-87
-87
-87
-91
-97
-99
-101
-101
-99
-99
-105
-105
-103
-105
-103
-101
-103
-105
-111
-115
-121
-117
-99
-73
-41
-7
23
47
55
51
43
11
-37
-77
-93
-91
-87
-89
-97
-103
-109
-109
-109
-109
-111
-111
-107
-109
-109
-105
-109
-111
-109
-111
-109
-109
-109
-111
-111
-111
-109
-109
-111
-109
-113
-113
-113
-109
-107
-109
-109
-109
-107
-107
-103
-103
-101
-101
-99
-99
-99
-93
-93
-93
-93
-95
-93
-91
-91
-89
-91
-93
-91
-93
-89
-93
-93
-93
-95
-93
-93
-95
-95
-95
-97
-101
-97
-99
-97
-99
-101
-101
-103
-105
-103
-101
-101
-105
-105
-107
-105
-101
-99
-103
-103
-103
-105
-105
-99
-103
-103
-103
-103
-101
-99
-97
-95
-97
-93
-91
-89
-85
-83
-81
-77
-79
-77
-77
-77
-81
-83
-87
-91
-91
-95
-97
-95
-97
-99
-101
-99
-101
-97
-99
-103
-111
-117
-117
-107
-79
-45
-15
15
41
53
57
47
33
-7
-57
-91
-97
-91
-91
-99
-109
-113
-113
-111
-109
-113
-111
-113
-111
-111
-107
-111
-111
-107
-111
-109
-109
-111
-111
-109
-107
-107
-105
-101
-103
-105
-105
-107
-107
-103
-99
-103
-101
-101
-101
-97
-95
-93
-95
-95
-95
-93
-93
-91
-89
-91
-89
-89
-89
-89
-91
-93
-93
-95
-95
-95
-93
-95
-97
-95
-99
-99
-97
-97
-99
-101
-101
-101
-101
-101
-101
-101
-103
-103
-103
-103
-97
-99
-99
-99
-99
-99
-95
-95
-95
-95
-95
-97
-93
-93
-91
-93
-93
-93
-93
-91
-89
-89
-87
-87
-85
-79
-75
-73
-71
-73
-73
-77
-77
-79
-81
-83
-89
-91
-93
-95
-95
-97
-97
-101
-101
-101
-101
-99
-99
-99
-103
-107
-113
-115
-113
-97
-71
-39
-15
11
37
51
53
49
41
11
-37
-75
-91
-87
-83
-85
-93
-97
-101
-99
-103
-105
-103
-101
-99
-99
-99
-103
-103
-105
-103
-101
-103
-103
-105
-105
-105
-105
-103
-103
-107
-109
-109
-107
-105
-103
-103
-105
-105
-105
-105
-99
-101
-99
-99
-99
-95
-93
-95
-93
-95
-93
-91
-91
-89
-89
-87
-91
-93
-91
-89
-87
-89
-91
-91
-93
-91
-91
-91
-91
-97
-95
-97
-95
-95
-97
-97
-97
-99
-97
-99
-97
-97
-101
-101
-101
-99
-99
-99
-103
-105
-103
-103
-103
-101
-99
-101
-101
-103
-101
-97
-99
-97
-99
-97
-97
-91
-89
-85
-85
-81
-81
-83
-81
-81
-85
-85
-87
-91
-93
-95
-97
-101
-101
-101
-105
-101
-101
-101
-103
-103
-103
-105
-107
-115
-121
-115
-99
-71
-35
-1
29
45
51
47
39
15
-27
-75
-97
-99
-93
-95
-99
-105
-111
-113
-115
-113
-113
-113
-113
-111
-113
-115
-115
-113
-111
-111
-111
-113
-113
-117
-113
-109
-109
-111
-111
-113
-113
-111
-107
-107
-109
-109
-109
-105
-103
-103
-103
-103
-101
-101
-99
-97
-97
-97
-95
-95
-93
-93
-93
-93
-95
-95
-97
-97
-95
-95
-97
-99
-99
-99
-99
-97
-101
-99
-105
-105
-105
-105
-105
-105
-107
-109
-109
-109
-109
-109
-111
-109
-109
-109
-107
-105
-105
-105
-105
-107
-105
-101
-103
-101
-101
-103
-101
-101
-99
-97
-99
-97
-97
-97
-93
-91
-89
-85
-83
-81
-79
-79
-79
-83
-85
-87
-89
-89
-93
-97
-101
-103
-105
-103
-103
-105
-107
-105
-107
-107
-107
-105
-107
-115
-123
-123
-115
-93
-61
-29
-1
23
39
47
43
33
9
-35
-83
-105
-101
-93
-91
-101
-109
-115
-115
-111
-109
-111
-109
-111
-109
-109
-111
-109
-107
-107
-107
-109
-109
-109
-109
-109
-109
-111
-111
-111
-111
-109
-109
-113
-113
-111
-109
-109
-107
-107
-107
-109
-105
-107
-105
-103
-101
-101
-101
-97
-95
-99
-99
-101
-99
-97
-97
-97
-97
-99
-101
-101
-99
-99
-99
-99
-99
-103
-99
-97
-99
-99
-103
-105
-105
-103
-105
-103
-105
-105
-107
-107
-103
-103
-103
-103
-105
-107
-107
-103
-103
-103
-103
-105
-105
-103
-103
-103
-103
-101
-103
-103
-101
-101
-97
-97
-99
-97
-93
-91
-87
-85
-83
-83
-83
-83
-83
-87
-85
-87
-89
-91
-95
-97
-99
-101
-101
-103
-103
-101
-101
-99
-101
-101
-101
-107
-113
-119
-113
-97
-71
-41
-13
15
41
53
49
47
35
3
-45
-81
-97
-99
-93
-95
-105
-109
-113
-115
-115
-115
-115
-115
-113
-111
-115
-117
-115
-115
-113
-115
-115
-115
-119
-113
-115
-113
-113
-115
-115
-113
-113
-111
-113
-109
-111
-113
-111
-107
-107
-105
-107
-107
-105
-105
-97
-97
-97
-99
-99
-97
-95
-93
-93
-95
-95
-93
-93
-93
-91
-95
-97
-99
-99
-99
-99
-99
-99
-99
-103
-103
-103
-101
-103
-103
-105
-107
-107
-107
-105
-107
-107
-109
-107
-107
-105
-103
-105
-105
-103
-105
-103
-99
-99
-99
-99
-99
-95
-97
-95
-95
-95
-99
-97
-93
-95
-93
-93
-95
-93
-91
-89
-87
-81
-79
-77
-77
-77
-77
-75
-77
-75
-81
-83
-83
-85
-91
-91
-95
-99
-101
-99
-99
-99
-99
-101
-101
-99
-101
-101
-105
-109
-117
-121
-111
-85
-47
-15
13
35
51
55
53
43
17
-29
-77
-93
-91
-85
-83
-93
-99
-103
-105
-103
-103
-107
-107
-107
-107
-103
-105
-103
-103
-105
-105
-105
-103
-105
-105
-105
-105
-107
-107
-103
-105
-107
-107
-111
-107
-105
-107
-103
-103
-105
-105
-101
-99
-99
-97
-99
-101
-99
-93
-91
-91
-89
-95
-93
-93
-91
-91
-89
-91
-91
-93
-91
-89
-89
-89
-93
-93
-93
-89
-91
-89
-91
-93
-97
-93
-95
-93
-95
-95
-95
-93
-95
-97
-97
-95
-95
-99
-97
-93
-93
-93
-95
-97
-95
-95
-93
-95
-93
-95
-95
-95
-91
-91
-85
-83
-83
-81
-75
-75
-75
-73
-75
-79
-81
-81
-83
-83
-87
-93
-93
-93
-95
-93
-95
-95
-95
-95
-95
-95
-95
-99
-107
-113
-109
-95
-67
-31
-3
25
45
53
49
49
45
3
-51
-85
-95
-89
-83
-87
-99
-107
-109
-109
-105
-107
-105
-107
-105
-107
-107
-105
-105
-107
-107
-107
-107
-105
-103
-105
-107
-107
-103
-105
-101
-105
-105
-105
-105
-101
-101
-97
-95
-99
-99
-99
-97
-93
-93
-93
-91
-89
-91
-87
-85
-83
-83
-85
-87
-87
-87
-83
-85
-87
-89
-91
-89
-91
-89
-91
-95
-95
-97
-95
-93
-95
-97
-97
-99
-99
-97
-97
-99
-99
-101
-99
-99
-97
-95
-99
-99
-97
-99
-97
-95
-95
-97
-97
-95
-97
-95
-93
-91
-93
-95
-93
-89
-89
-87
-87
-83
-79
-81
-77
-71
-71
-73
-75
-75
-77
-79
-77
-79
-83
-89
-95
-95
-95
-93
-99
-99
-99
-101
-99
-97
-99
-101
-103
-109
-117
-117
-103
-81
-43
-7
25
49
59
59
49
41
13
-39
-95
-117
-113
-103
-97
-103
-109
-111
-109
-107
-107
-105
-111
-107
-107
-105
-105
-109
-107
-107
-107
-105
-107
-105
-107
-107
-107
-107
-105
-107
-105
-105
-109
-105
-103
-103
-105
-103
-103
-101
-103
-101
-101
-99
-99
-99
-97
-97
-95
-95
-97
-95
-99
-95
-95
-95
-95
-95
-97
-97
-97
-95
-95
-95
-97
-99
-99
-99
-99
-99
-99
-101
-101
-99
-99
-97
-101
-99
-103
-103
-101
-97
-99
-97
-101
-99
-99
-97
-97
-97
-99
-99
-101
-99
-97
-97
-99
-99
-99
-101
-99
-97
-99
-99
-99
-97
-95
-91
-89
-85
-85
-83
-83
-83
-83
-81
-85
-89
-91
-89
-87
-91
-95
-99
-101
-103
-101
-99
-101
-101
-99
-101
-103
-101
-99
-103
-107
-113
-121
-113
-95
-63
-27
5
31
47
53
51
47
33
3
-49
-87
-95
-91
-89
-93
-101
-107
-109
-109
-109
-109
-111
-109
-111
-109
-107
-107
-107
-109
-109
-109
-111
-109
-109
-109
-109
-109
-109
-111
-105
-107
-107
-107
-107
-109
-107
-103
-103
-107
-103
-105
-103
-101
-97
-99
-99
-97
-99
-95
-93
-91
-91
-91
-91
-89
-89
-89
-87
-89
-91
-91
-91
-89
-91
-91
-95
-95
-95
-93
-93
-95
-97
-99
-101
-99
-101
-101
-103
-103
-105
-105
-103
-103
-101
-103
-105
-105
-105
-101
-101
-99
-101
-103
-101
-99
-99
-99
-97
-99
-99
-99
-95
-93
-93
-93
-93
-95
-93
-87
-83
-81
-79
-77
-75
-75
-75
-75
-79
-81
-83
-83
-83
-87
-91
-93
-97
-99
-99
-97
-101
-99
-99
-101
-99
-101
-103
-107
-117
-119
-113
-89
-59
-27
3
29
47
47
49
43
19
-31
-73
-97
-93
-85
-87
-95
-103
-107
-109
-109
-103
-103
-103
-99
-101
-101
-103
-101
-101
-101
-103
-105
-103
-101
-101
-103
-103
-103
-105
-105
-101
-99
-101
-103
-103
-103
-101
-99
-101
-97
-101
-101
-97
-97
-95
-93
-91
-91
-91
-87
-89
-87
-87
-91
-91
-91
-91
-91
-89
-91
-91
-93
-91
-91
-89
-89
-89
-91
-89
-91
-89
-91
-91
-89
-95
-93
-93
-95
-93
-89
-93
-93
-91
-91
-91
-91
-93
-93
-93
-91
-91
-91
-91
-89
-93
-93
-93
-89
-87
-85
-87
-87
-87
-83
-83
-79
-77
-75
-73
-73
-71
-73
-73
-73
-75
-75
-79
-81
-81
-85
-89
-93
-91
-93
-93
-91
-93
-91
-91
-93
-89
-91
-95
-103
-109
-105
-87
-53
-21
5
29
51
57
61
57
43
9
-43
-77
-89
-83
-79
-79
-87
-93
-99
-101
-99
-101
-101
-103
-101
-101
-99
-101
-99
-101
-101
-101
-103
-101
-99
-103
-105
-105
-105
-105
-99
-99
-101
-101
-103
-101
-99
-99
-95
-99
-95
-97
-95
-93
-89
-89
-87
-85
-85
-87
-81
-79
-81
-83
-83
-83
-81
-79
-79
-81
-83
-81
-83
-81
-81
-83
-85
-85
-87
-89
-85
-87
-89
-89
-91
-91
-91
-91
-91
-95
-95
-93
-93
-93
-93
-91
-95
-95
-93
-93
-93
-89
-89
-93
-95
-89
-87
-85
-85
-85
-87
-83
-81
-75
-73
-73
-67
-67
-69
-69
-67
-71
-73
-73
-77
-81
-79
-83
-85
-87
-87
-91
-91
-89
-91
-89
-91
-91
-95
-99
-103
-109
-105
-85
-55
-19
15
41
55
55
49
41
9
-37
-75
-91
-91
-85
-87
-95
-99
-105
-103
-105
-105
-105
-101
-101
-103
-103
-103
-103
-101
-101
-101
-101
-99
-101
-97
-97
-97
-97
-97
-99
-103
-97
-95
-95
-95
-97
-97
-97
-95
-95
-95
-95
-95
-95
-93
-91
-91
-87
-89
-89
-91
-89
-87
-89
-87
-87
-89
-89
-91
-89
-93
-91
-93
-93
-93
-95
-93
-93
-93
-95
-99
-97
-97
-95
-99
-99
-101
-101
-97
-97
-97
-95
-97
-97
-99
-97
-93
-93
-95
-95
-97
-93
-91
-89
-91
-93
-91
-91
-95
-91
-89
-87
-89
-87
-87
-83
-79
-75
-77
-77
-75
-73
-73
-75
-79
-83
-83
-85
-87
-89
-91
-95
-97
-99
-99
-99
-95
-99
-99
-99
-101
-101
-101
-103
-107
-117
-115
-103
-79
-49
-15
13
41
53
53
51
45
25
-19
-65
-93
-97
-87
-87
-93
-103
-107
-109
-107
-107
-109
-105
-107
-107
-107
-105
-107
-109
-107
-109
-109
-107
-109
-107
-107
-109
-109
-111
-109
-109
-111
-107
-107
-107
-109
-107
-103
-105
-105
-105
-105
-103
-103
-103
-101
-101
-101
-99
-97
-95
-93
-93
-95
-93
-93
-93
-95
-93
-93
-93
-95
-95
-93
-91
-93
-97
-97
-95
-97
-95
-97
-97
-99
-101
-101
-101
-101
-101
-103
-105
-105
-103
-103
-103
-101
-103
-101
-103
-101
-99
-99
-101
-103
-101
-103
-103
-101
-99
-97
-97
-97
-97
-93
-87
-87
-87
-81
-81
-81
-79
-79
-83
-85
-85
-85
-87
-89
-95
-99
-97
-99
-101
-101
-101
-101
-101
-101
-103
-103
-111
-117
-117
-109
-87
-53
-17
9
33
49
49
47
33
7
-39
-81
-101
-101
-95
-93
-101
-111
-115
-117
-117
-119
-117
-115
-113
-115
-113
-117
-115
-113
-113
-113
-113
-113
-115
-113
-111
-111
-113
-115
-115
-115
-113
-109
-111
-111
-115
-113
-109
-107
-107
-109
-107
-107
-107
-105
-103
-101
-101
-101
-99
-97
-95
-95
-95
-95
-95
-97
-97
-97
-97
-99
-101
-99
-103
-103
-101
-103
-103
-105
-105
-107
-105
-105
-105
-107
-107
-111
-109
-109
-109
-111
-109
-111
-109
-109
-107
-105
-105
-103
-107
-105
-105
-99
-101
-103
-101
-101
-103
-103
-99
-99
-99
-97
-99
-97
-93
-91
-91
-85
-87
-85
-83
-79
-81
-85
-85
-87
-89
-87
-91
-97
-101
-103
-103
-101
-107
-105
-107
-107
-107
-105
-105
-105
-111
-121
-127
-127
-119
-91
-59
-25
1
27
43
47
45
31
-5
-57
-95
-101
-93
-85
-93
-103
-111
-113
-113
-111
-111
-111
-111
-113
-113
-111
-111
-113
-111
-113
-115
-113
-113
-111
-111
-115
-117
-117
-115
-115
-115
-115
-119
-119
-117
-115
-113
-113
-115
-113
-113
-111
-109
-107
-107
-105
-105
-107
-107
-101
-101
-101
-101
-101
-101
-99
-99
-99
-97
-97
-99
-101
-99
-97
-99
-101
-101
-101
-101
-99
-99
-99
-105
-105
-105
-103
-103
-105
-107
-107
-109
-107
-103
-105
-105
-107
-107
-107
-109
-105
-105
-107
-107
-107
-107
-109
-105
-107
-105
-103
-103
-103
-101
-99
-95
-93
-91
-89
-87
-87
-83
-85
-89
-89
-93
-93
-93
-97
-99
-103
-103
-103
-105
-103
-105
-107
-107
-107
-105
-105
-105
-113
-121
-125
-117
-99
-69
-35
-7
19
41
47
47
41
11
-39
-83
-105
-107
-95
-93
-103
-113
-115
-119
-117
-115
-117
-117
-117
-115
-115
-115
-115
-113
-117
-115
-117
-117
-115
-115
-115
-117
-115
-113
-113
-113
-113
-113
-113
-111
-111
-111
-109
-107
-111
-109
-107
-105
-103
-105
-103
-105
-105
-101
-99
-97
-95
-97
-99
-95
-95
-95
-95
-95
-97
-99
-99
-99
-99
-101
-101
-103
-103
-103
-105
-103
-105
-107
-109
-109
-109
-109
-107
-111
-113
-113
-113
-111
-111
-111
-111
-111
-111
-109
-107
-105
-107
-107
-109
-109
-105
-105
-105
-105
-103
-103
-103
-101
-99
-101
-99
-97
-95
-89
-85
-85
-85
-85
-85
-85
-89
-85
-89
-91
-93
-97
-101
-103
-103
-105
-111
-111
-109
-111
-111
-113
-113
-113
-113
-115
-123
-129
-127
-115
-93
-59
-25
1
27
43
43
39
25
-1
-47
-93
-113
-109
-101
-103
-109
-115
-117
-119
-121
-117
-117
-115
-113
-113
-115
-117
-115
-115
-115
-115
-117
-117
-113
-115
-115
-113
-115
-115
-117
-117
-119
-115
-115
-113
-117
-117
-117
-115
-113
-115
-115
-111
-115
-113
-109
-107
-107
-107
-107
-107
-107
-105
-105
-107
-109
-109
-109
-109
-105
-107
-109
-109
-111
-107
-107
-109
-109
-111
-113
-111
-111
-111
-113
-113
-111
-113
-113
-111
-113
-111
-111
-113
-111
-111
-109
-109
-111
-113
-111
-111
-111
-109
-111
-109
-111
-113
-109
-107
-107
-107
-105
-101
-99
-97
-93
-91
-93
-95
-97
-99
-97
-99
-99
-103
-109
-113
-115
-115
-115
-113
-117
-119
-117
-115
-115
-115
-113
-117
-127
-133
-127
-117
-87
-53
-23
5
29
47
49
43
27
-7
-61
-99
-111
-105
-101
-107
-119
-123
-125
-123
-119
-119
-121
-121
-125
-123
-121
-121
-123
-125
-125
-123
-123
-123
-121
-121
-125
-125
-123
-121
-121
-121
-123
-121
-121
-121
-119
-119
-119
-121
-121
-117
-115
-115
-113
-113
-113
-111
-109
-107
-107
-105
-107
-107
-105
-103
-103
-101
-103
-105
-105
-105
-107
-107
-107
-109
-107
-109
-109
-109
-109
-107
-111
-113
-113
-115
-115
-117
-117
-119
-117
-117
-115
-113
-115
-117
-119
-117
-115
-115
-113
-115
-117
-117
-117
-113
-113
-113
-115
-111
-111
-109
-107
-107
-103
-103
-99
-95
-91
-87
-89
-91
-91
-93
-93
-95
-93
-93
-99
-105
-107
-109
-107
-107
-111
-113
-111
-111
-109
-107
-113
-119
-125
-133
-129
-107
-79
-47
-21
9
33
45
49
45
29
-9
-59
-97
-109
-103
-101
-105
-113
-121
-123
-123
-119
-121
-123
-121
-119
-119
-117
-119
-119
-121
-121
-119
-119
-115
-115
-117
-119
-117
-119
-117
-117
-115
-117
-117
-117
-117
-113
-113
-115
-115
-113
-111
-109
-107
-109
-109
-109
-109
-105
-105
-103
-105
-105
-103
-105
-105
-103
-103
-105
-105
-107
-107
-107
-107
-105
-105
-109
-111
-109
-111
-109
-109
-111
-113
-115
-111
-111
-111
-111
-111
-111
-111
-107
-107
-107
-107
-109
-107
-105
-103
-103
-105
-107
-107
-105
-103
-101
-99
-101
-101
-99
-95
-93
-91
-89
-87
-87
-89
-87
-83
-87
-89
-91
-93
-95
-97
-99
-105
-109
-107
-111
-107
-109
-109
-107
-109
-109
-113
-111
-113
-121
-127
-125
-111
-85
-51
-15
13
35
47
49
45
25
-17
-63
-95
-103
-97
-93
-95
-99
-107
-113
-113
-113
-111
-111
-113
-113
-111
-113
-113
-113
-111
-111
-113
-113
-113
-113
-115
-113
-113
-115
-115
-115
-115
-115
-115
-119
-119
-117
-115
-115
-111
-111
-113
-113
-111
-107
-107
-105
-103
-105
-105
-105
-103
-99
-99
-97
-101
-101
-99
-97
-99
-99
-95
-99
-99
-99
-95
-97
-99
-99
-101
-99
-97
-99
-101
-103
-103
-105
-103
-103
-105
-105
-107
-107
-107
-107
-107
-105
-107
-109
-105
-107
-105
-105
-105
-105
-107
-105
-103
-103
-103
-103
-99
-101
-101
-99
-95
-89
-89
-83
-85
-85
-83
-83
-83
-85
-87
-87
-91
-93
-93
-99
-101
-103
-101
-101
-103
-101
-101
-103
-105
-103
-109
-115
-119
-113
-95
-59
-23
5
29
45
49
47
39
23
-15
-65
-97
-103
-97
-93
-97
-105
-113
-117
-119
-117
-115
-115
-115
-113
-115
-115
-119
-115
-115
-115
-115
-115
-115
-115
-115
-115
-115
-115
-117
-115
-113
-113
-111
-111
-111
-111
-111
-109
-107
-107
-105
-107
-107
-103
-103
-99
-97
-97
-99
-97
-97
-95
-97
-95
-97
-99
-97
-99
-97
-99
-101
-101
-101
-101
-103
-101
-103
-105
-105
-109
-107
-105
-109
-109
-109
-111
-111
-109
-111
-109
-107
-109
-109
-109
-107
-105
-105
-105
-105
-105
-103
-101
-101
-101
-103
-103
-103
-99
-97
-95
-95
-97
-93
-89
-85
-83
-81
-81
-81
-83
-81
-85
-85
-83
-87
-91
-93
-93
-97
-101
-105
-105
-107
-107
