-63
-63
-63
-65
-65
-63
-61
-61
-63
-63
-63
-63
-63
-61
-63
-63
-61
-63
-63
-61
-63
-61
-59
-59
-61
-63
-59
-55
-57
-53
-53
-49
-47
-47
-43
-43
-39
-39
-35
-33
-33
-35
-35
-37
-39
-35
-37
-41
-41
-39
-41
-43
-43
-45
-47
-49
-43
-43
-45
-45
-45
-47
-43
-45
-47
-45
-43
-45
-47
-47
-47
-49
-45
-47
-47
-45
-43
-49
-49
-47
-49
-49
-47
-49
-51
-49
-47
-49
-49
-49
-51
-47
-47
-43
-41
-41
-41
-37
-37
-33
-31
-29
-29
-33
-35
-37
-39
-47
-55
-55
-57
-55
-55
-55
-55
-53
-53
-51
-53
-53
-51
-49
-47
-49
-49
-51
-43
-31
-7
25
51
77
85
77
39
15
-1
-25
-45
-49
-59
-67
-69
-71
-73
-69
-71
-73
-71
-69
-69
-67
-67
-65
-67
-65
-65
-65
-65
-61
-63
-63
-59
-61
-63
-59
-59
-61
-59
-57
-57
-55
-55
-53
-49
-49
-45
-45
-39
-37
-39
-35
-31
-31
-33
-33
-37
-35
-37
-39
-43
-43
-43
-45
-45
-47
-47
-47
-51
-49
-51
-49
-51
-55
-53
-49
-53
-53
-51
-51
-51
-51
-51
-57
-55
-51
-55
-53
-49
-51
-53
-51
-49
-51
-53
-53
-53
-49
-49
-47
-49
-49
-45
-45
-43
-43
-41
-37
-33
-31
-31
-31
-33
-37
-39
-43
-51
-57
-55
-57
-57
-55
-57
-57
-57
-55
-57
-57
-57
-55
-55
-55
-55
-53
-47
-29
1
31
57
79
77
47
19
1
-19
-45
-55
-65
-67
-71
-75
-73
-71
-71
-71
-69
-67
-71
-69
-65
-65
-65
-61
-63
-63
-61
-63
-63
-63
-63
-61
-61
-57
-61
-61
-59
-57
-57
-55
-53
-53
-51
-47
-49
-45
-41
-43
-41
-37
-33
-35
-37
-37
-39
-39
-43
-47
-47
-49
-47
-47
-51
-51
-53
-53
-49
-55
-53
-51
-51
-55
-51
-51
-51
-49
-49
-47
-51
-51
-51
-51
-47
-49
-51
-49
-49
-47
-45
-47
-49
-51
-49
-47
-53
-49
-45
-47
-47
-47
-43
-41
-39
-35
-37
-31
-31
-33
-33
-35
-39
-49
-55
-57
-59
-61
-59
-61
-61
-61
-59
-57
-59
-57
-57
-55
-53
-55
-51
-41
-9
25
53
79
77
39
13
-3
-27
-47
-55
-63
-65
-69
-71
-71
-67
-69
-69
-67
-67
-67
-65
-63
-65
-63
-65
-65
-65
-65
-65
-63
-63
-61
-63
-63
-63
-65
-63
-61
-59
-57
-57
-57
-57
-53
-53
-51
-49
-45
-43
-41
-39
-41
-41
-43
-45
-43
-45
-43
-47
-47
-49
-51
-49
-49
-49
-49
-51
-49
-51
-51
-49
-51
-49
-47
-45
-45
-47
-49
-45
-47
-47
-45
-45
-43
-45
-45
-49
-47
-47
-49
-47
-49
-51
-49
-47
-51
-51
-49
-51
-49
-45
-43
-43
-45
-41
-37
-33
-31
-31
-39
-37
-41
-51
-57
-61
-61
-61
-61
-61
-59
-59
-59
-59
-57
-57
-57
-53
-53
-53
-49
-39
-23
7
41
75
85
73
35
5
-11
-33
-45
-55
-61
-65
-69
-67
-67
-67
-67
-61
-67
-69
-65
-63
-63
-63
-65
-65
-67
-63
-65
-67
-63
-65
-65
-63
-63
-65
-65
-63
-63
-61
-55
-53
-53
-51
-47
-45
-43
-39
-37
-37
-35
-37
-37
-39
-41
-41
-41
-39
-43
-45
-43
-43
-45
-45
-47
-45
-49
-47
-47
-47
-45
-45
-43
-49
-47
-45
-47
-45
-47
-45
-45
-47
-45
-43
-43
-49
-49
-47
-47
-47
-47
-49
-49
-49
-49
-51
-49
-45
-47
-47
-45
-43
-41
-41
-37
-35
-29
-27
-29
-31
-35
-35
-41
-51
-55
-53
-55
-55
-53
-55
-55
-53
-53
-51
-51
-51
-49
-45
-47
-47
-45
-35
-13
23
55
83
85
65
29
5
-15
-37
-49
-57
-65
-69
-69
-65
-67
-69
-67
-67
-67
-65
-63
-65
-65
-63
-65
-63
-61
-63
-63
-65
-63
-61
-63
-63
-63
-61
-61
-61
-59
-57
-53
-51
-51
-45
-41
-43
-39
-35
-33
-35
-31
-33
-35
-35
-37
-39
-39
-41
-41
-43
-43
-45
-47
-47
-49
-49
-47
-49
-51
-49
-45
-49
-51
-47
-49
-49
-53
-53
-49
-49
-49
-51
-51
-51
-53
-51
-49
-51
-51
-49
-53
-51
-51
-51
-53
-53
-49
-49
-47
-47
-45
-43
-41
-37
-37
-35
-31
-29
-31
-33
-33
-33
-39
-49
-51
-55
-51
-53
-55
-55
-51
-53
-55
-55
-55
-53
-51
-53
-51
-49
-49
-47
-33
-7
25
53
75
77
53
21
5
-15
-39
-51
-55
-65
-67
-69
-73
-71
-73
-73
-71
-67
-67
-67
-67
-63
-63
-65
-67
-65
-63
-61
-63
-61
-61
-63
-63
-59
-59
-63
-57
-55
-59
-57
-51
-53
-51
-49
-49
-47
-45
-43
-41
-37
-33
-37
-35
-33
-35
-33
-35
-37
-39
-37
-43
-45
-47
-45
-47
-51
-51
-47
-51
-49
-51
-53
-55
-51
-51
-53
-53
-49
-51
-51
-51
-49
-49
-47
-47
-47
-49
-49
-51
-47
-47
-49
-49
-47
-49
-47
-49
-47
-47
-47
-45
-45
-43
-45
-43
-41
-41
-41
-39
-35
-31
-29
-29
-29
-33
-41
-39
-41
-49
-55
-55
-59
-61
-59
-57
-59
-55
-55
-59
-57
-53
-55
-57
-57
-57
-53
-53
-51
-41
-13
23
51
73
79
49
17
1
-11
-31
-45
-47
-57
-63
-65
-67
-67
-63
-63
-67
-65
-63
-65
-63
-63
-63
-63
-61
-61
-61
-59
-61
-59
-61
-61
-63
-65
-63
-61
-61
-61
-59
-63
-61
-57
-57
-59
-57
-53
-51
-51
-49
-49
-45
-43
-43
-41
-41
-41
-45
-41
-41
-47
-45
-45
-43
-47
-47
-47
-49
-49
-49
-49
-49
-47
-49
-49
-47
-47
-47
-47
-47
-49
-47
-45
-45
-47
-47
-47
-47
-45
-47
-49
-47
-47
-49
-49
-47
-49
-49
-51
-51
-51
-53
-51
-55
-55
-53
-53
-53
-49
-45
-45
-43
-43
-43
-39
-35
-35
-37
-37
-41
-43
-43
-47
-55
-57
-57
-57
-57
-55
-55
-55
-53
-55
-53
-53
-49
-51
-51
-47
-49
-45
-31
-7
27
53
71
79
65
31
1
-21
-43
-49
-59
-67
-69
-69
-69
-69
-69
-69
-69
-69
-71
-71
-69
-67
-69
-67
-69
-67
-67
-67
-67
-67
-63
-67
-69
-69
-65
-67
-63
-63
-63
-61
-57
-57
-55
-53
-51
-47
-47
-43
-39
-39
-39
-35
-35
-35
-33
-39
-39
-39
-39
-41
-41
-43
-45
-45
-47
-49
-49
-49
-53
-51
-51
-51
-51
-49
-53
-53
-53
-53
-53
-53
-53
-55
-55
-53
-53
-55
-53
-53
-53
-53
-51
-53
-55
-53
-55
-57
-55
-53
-55
-55
-55
-53
-53
-49
-49
-49
-45
-43
-45
-41
-35
-35
-35
-29
-33
-35
-35
-39
-47
-53
-55
-55
-57
-59
-59
-57
-55
-59
-55
-55
-53
-53
-55
-51
-55
-55
-55
-51
-41
-19
13
43
63
79
65
31
9
-3
-25
-47
-53
-61
-69
-71
-73
-73
-71
-73
-73
-73
-69
-71
-73
-69
-71
-67
-65
-65
-65
-63
-61
-63
-65
-61
-61
-65
-63
-59
-61
-59
-57
-59
-57
-55
-53
-53
-49
-49
-47
-45
-43
-41
-37
-35
-37
-39
-35
-39
-41
-41
-43
-49
-51
-49
-51
-55
-51
-53
-57
-57
-57
-57
-55
-55
-55
-57
-55
-55
-55
-53
-53
-55
-55
-51
-53
-55
-53
-53
-51
-49
-51
-53
-53
-49
-49
-49
-49
-47
-49
-45
-49
-49
-47
-47
-47
-43
-43
-45
-43
-37
-35
-33
-31
-29
-35
-37
-37
-41
-49
-53
-55
-57
-61
-61
-61
-59
-57
-59
-61
-59
-59
-59
-57
-51
-55
-55
-51
-39
-13
19
47
69
75
53
23
5
-5
-29
-49
-53
-59
-63
-67
-69
-69
-69
-69
-69
-67
-67
-67
-69
-65
-65
-63
-65
-63
-63
-63
-63
-61
-65
-63
-61
-63
-63
-63
-63
-61
-59
-61
-61
-59
-55
-59
-57
-53
-51
-49
-49
-47
-45
-45
-41
-41
-41
-41
-43
-45
-43
-43
-45
-49
-47
-51
-49
-49
-49
-51
-47
-49
-49
-49
-49
-47
-47
-47
-49
-43
-43
-47
-47
-43
-43
-45
-43
-45
-47
-45
-45
-45
-49
-47
-45
-47
-45
-47
-47
-49
-45
-49
-51
-47
-47
-47
-45
-43
-43
-43
-39
-37
-33
-31
-31
-33
-37
-37
-39
-43
-51
-57
-57
-57
-55
-59
-55
-55
-53
-53
-51
-51
-51
-51
-51
-51
-47
-47
-41
-25
5
39
65
85
89
61
23
7
-19
-37
-47
-53
-61
-63
-63
-67
-67
-69
-67
-67
-65
-67
-67
-65
-65
-63
-65
-65
-67
-65
-63
-65
-65
-67
-65
-65
-67
-67
-67
-63
-63
-61
-61
-59
-57
-57
-51
-49
-47
-47
-43
-41
-39
-37
-37
-37
-33
-31
-33
-37
-39
-39
-43
-43
-45
-45
-43
-43
-47
-49
-49
-49
-49
-49
-49
-49
-49
-49
-51
-51
-49
-49
-49
-51
-51
-51
-49
-51
-49
-49
-51
-49
-51
-49
-49
-51
-51
-49
-51
-47
-49
-49
-51
-47
-45
-45
-45
-43
-41
-37
-33
-31
-31
-29
-31
-35
-37
-39
-49
-53
-53
-53
-53
-53
-51
-55
-53
-53
-53
-49
-47
-49
-51
-49
-47
-45
-31
-3
31
61
83
81
55
19
1
-25
-43
-53
-63
-67
-69
-71
-73
-71
-73
-73
-73
-71
-71
-69
-67
-69
-67
-65
-67
-67
-65
-65
-63
-65
-63
-63
-65
-63
-61
-63
-59
-55
-57
-55
-51
-49
-45
-43
-41
-41
-39
-35
-35
-37
-35
-37
-37
-39
-43
-45
-45
-47
-47
-49
-53
-51
-51
-49
-53
-53
-55
-53
-53
-53
-51
-53
-57
-53
-53
-55
-53
-51
-53
-53
-53
-53
-53
-51
-53
-51
-51
-51
-51
-49
-49
-53
-47
-49
-49
-47
-45
-43
-43
-43
-43
-37
-33
-31
-31
-31
-29
-33
-37
-37
-39
-47
-51
-51
-55
-57
-55
-53
-55
-55
-53
-53
-53
-53
-55
-53
-55
-57
-53
-43
-27
3
37
61
77
67
31
7
-7
-25
-45
-53
-63
-65
-69
-69
-69
-69
-67
-69
-67
-67
-65
-63
-63
-59
-63
-65
-65
-61
-61
-61
-61
-59
-59
-59
-59
-61
-61
-57
-55
-57
-53
-53
-51
-53
-49
-49
-45
-41
-41
-43
-39
-39
-39
-41
-39
-39
-43
-45
-47
-51
-49
-51
-53
-53
-51
-53
-53
-53
-53
-53
-53
-53
-53
-53
-53
-53
-53
-47
-51
-49
-53
-49
-49
-51
-49
-49
-49
-45
-47
-49
-47
-49
-49
-49
-47
-47
-49
-43
-43
-43
-43
-41
-37
-35
-31
-29
-33
-35
-41
-43
-45
-51
-55
-57
-57
-59
-59
-57
-59
-59
-57
-55
-59
-57
-55
-57
-57
-55
-47
-25
7
39
63
75
57
19
1
-9
-31
-49
-53
-63
-69
-71
-71
-69
-69
-69
-69
-69
-67
-65
-67
-67
-63
-65
-63
-63
-63
-65
-63
-65
-65
-63
-63
-65
-67
-65
-65
-63
-63
-63
-61
-61
-55
-57
-57
-53
-51
-49
-47
-47
-45
-45
-41
-41
-45
-45
-45
-45
-49
-49
-49
-49
-51
-53
-53
-51
-53
-53
-53
-51
-51
-49
-51
-49
-49
-47
-49
-49
-49
-47
-45
-49
-49
-49
-47
-47
-49
-49
-49
-49
-49
-49
-49
-51
-49
-51
-51
-51
-49
-47
-45
-41
-45
-47
-43
-39
-39
-35
-33
-35
-39
-39
-43
-53
-55
-61
-59
-63
-63
-61
-61
-59
-61
-59
-57
-55
-57
-55
-57
-55
-53
-49
-33
-3
33
59
73
79
65
25
1
-15
-39
-49
-59
-63
-69
-71
-69
-69
-71
-71
-69
-71
-71
-69
-71
-69
-69
-69
-67
-65
-65
-69
-69
-69
-69
-67
-67
-67
-67
-65
-65
-63
-65
-61
-63
-61
-59
-59
-57
-53
-49
-51
-47
-45
-45
-45
-43
-43
-41
-43
-43
-43
-41
-43
-47
-47
-47
-49
-49
-49
-49
-47
-49
-51
-53
-51
-51
-51
-51
-53
-53
-53
-51
-49
-53
-51
-49
-51
-55
-51
-53
-55
-53
-51
-55
-53
-51
-55
-57
-53
-53
-57
-57
-53
-57
-55
-53
-53
-49
-43
-45
-47
-49
-43
-39
-35
-33
-33
-37
-39
-39
-45
-51
-55
-59
-59
-57
-59
-59
-57
-57
-59
-57
-57
-57
-55
-55
-57
-53
-53
-51
-41
-17
19
49
71
77
61
25
1
-21
-47
-55
-61
-73
-75
-75
-73
-77
-79
-77
-77
-75
-75
-75
-73
-73
-73
-75
-73
-73
-73
-71
-69
-71
-71
-69
-69
-67
-69
-67
-67
-65
-63
-63
-61
-59
-59
-59
-51
-51
-51
-47
-45
-43
-39
-39
-39
-41
-41
-41
-43
-41
-41
-45
-47
-49
-49
-53
-49
-51
-55
-57
-53
-51
-53
-53
-57
-57
-57
-57
-57
-57
-55
-55
-55
-55
-53
-53
-55
-57
-59
-57
-57
-57
-57
-55
-53
-55
-53
-53
-55
-53
-51
-51
-51
-51
-53
-49
-47
-47
-45
-41
-43
-45
-41
-37
-35
-33
-31
-35
-39
-37
-39
-47
-53
-61
-63
-61
-59
-59
-63
-61
-61
-59
-59
-61
-61
-59
-57
-59
-55
-55
-55
-53
-39
-15
15
45
63
69
63
35
3
-7
-29
-49
-55
-61
-67
-73
-71
-71
-71
-73
-71
-69
-69
-67
-67
-71
-71
-69
-69
-69
-69
-67
-69
-65
-65
-67
-69
-63
-67
-67
-63
-63
-65
-63
-61
-61
-61
-59
-57
-55
-51
-53
-53
-51
-47
-45
-43
-43
-43
-45
-45
-47
-49
-49
-51
-53
-53
-53
-57
-55
-53
-53
-55
-53
-55
-53
-55
-53
-53
-53
-51
-51
-53
-51
-49
-51
-49
-47
-51
-51
-49
-49
-49
-49
-49
-51
-51
-49
-51
-49
-51
-53
-53
-53
-51
-55
-55
-53
-51
-51
-47
-47
-49
-49
-45
-43
-41
-39
-39
-37
-41
-45
-43
-43
-51
-61
-63
-63
-61
-61
-63
-63
-63
-61
-59
-61
-57
-59
-57
-55
-53
-55
-53
-45
-35
-9
23
55
75
79
55
19
1
-13
-35
-49
-55
-63
-67
-71
-73
-73
-73
-71
-71
-73
-73
-71
-73
-71
-69
-69
-73
-71
-71
-71
-69
-69
-69
-67
-69
-69
-69
-71
-69
-69
-69
-67
-65
-63
-59
-63
-61
-57
-55
-55
-51
-45
-43
-45
-41
-37
-37
-37
-39
-39
-39
-41
-45
-45
-43
-49
-51
-51
-47
-49
-51
-51
-51
-49
-51
-51
-53
-53
-47
-51
-51
-51
-53
-51
-49
-53
-53
-51
-53
-55
-55
-53
-51
-53
-53
-55
-55
-53
-53
-55
-55
-53
-53
-53
-51
-49
-47
-47
-45
-43
-37
-37
-35
-31
-31
-39
-41
-41
-47
-55
-57
-55
-59
-57
-57
-59
-57
-53
-53
-57
-55
-53
-53
-55
-51
-51
-45
-27
-3
29
51
75
73
43
11
-5
-27
-47
-55
-63
-69
-73
-75
-71
-71
-75
-75
-73
-71
-73
-73
-71
-73
-73
-69
-67
-65
-65
-65
-67
-65
-63
-63
-63
-61
-63
-61
-61
-59
-59
-57
-55
-55
-53
-49
-45
-43
-41
-41
-41
-39
-39
-37
-35
-35
-37
-39
-39
-43
-45
-45
-45
-47
-51
-49
-51
-53
-53
-53
-53
-53
-53
-53
-53
-53
-53
-53
-53
-53
-57
-53
-53
-53
-51
-51
-51
-53
-51
-51
-51
-51
-51
-51
-51
-47
-51
-53
-51
-49
-51
-49
-47
-47
-43
-43
-45
-43
-37
-35
-31
-29
-31
-35
-33
-35
-39
-45
-51
-53
-55
-55
-55
-57
-57
-57
-57
-57
-57
-55
-57
-55
-53
-55
-53
-49
-37
-11
21
51
71
73
37
9
1
-15
-45
-55
-59
-65
-67
-67
-67
-67
-65
-65
-65
-65
-63
-61
-63
-63
-59
-61
-61
-57
-59
-57
-59
-59
-57
-57
-57
-59
-57
-55
-55
-53
-51
-55
-53
-47
-45
-45
-43
-39
-39
-37
-37
-35
-35
-37
-41
-43
-39
-43
-45
-47
-51
-51
-51
-51
-49
-53
-51
-51
-49
-51
-49
-51
-51
-49
-49
-49
-47
-47
-47
-49
-47
-45
-47
-45
-47
-49
-45
-45
-45
-45
-45
-45
-47
-47
-45
-47
-45
-45
-43
-39
-39
-39
-37
-33
-31
-31
-31
-31
-37
-39
-43
-49
-57
-55
-57
-59
-57
-57
-59
-57
-55
-57
-57
-57
-55
-55
-53
-53
-49
-31
-3
27
51
73
79
45
15
-3
-21
-41
-51
-57
-61
-63
-65
-65
-65
-63
-63
-63
-63
-63
-63
-59
-63
-63
-59
-61
-63
-59
-59
-61
-61
-61
-59
-61
-61
-61
-59
-57
-57
-55
-57
-55
-55
-51
-49
-47
-45
-41
-41
-41
-39
-35
-37
-39
-37
-39
-39
-39
-43
-45
-43
-45
-45
-49
-47
-47
-49
-45
-45
-43
-35
-21
-1
17
45
53
79
109
133
135
95
31
-7
-41
-69
-79
-83
-79
-79
-79
-79
-77
-77
-79
-79
-83
-89
-91
-93
-95
-91
-85
-89
-93
-89
-81
-79
-77
-81
-83
-83
-81
-81
-81
-77
-79
-77
-73
-71
-71
-67
-61
-61
-55
-51
-49
-49
-45
-41
-41
-39
-37
-37
-39
-35
-35
-39
-39
-39
-39
-39
-37
-39
-41
-41
-39
-37
-37
-39
-43
-41
-43
-43
-41
-43
-43
-43
-45
-43
-49
-47
-45
-47
-49
-49
-49
-49
-49
-51
-49
-47
-49
-51
-53
-51
-51
-51
-49
-49
-49
-51
-47
-49
-49
-51
-49
-49
-47
-43
-47
-47
-47
-45
-45
-43
-45
-47
-47
-43
-45
-45
-45
-45
-45
-45
-47
-47
-45
-45
-47
-45
-43
-47
-47
-47
-47
-49
-45
-45
-47
-47
-47
-49
-47
-47
-49
-47
-47
-51
-51
-51
-49
-49
-49
-49
-47
-47
-45
-43
-41
-41
-39
-35
-31
-29
-31
-29
-31
-33
-37
-39
-45
-51
-51
-47
-53
-51
-47
-49
-49
-49
-49
-49
-49
-47
-49
-47
-41
-31
-5
27
55
77
85
63
25
3
-15
-41
-51
-57
-61
-65
-69
-65
-67
-67
-65
-65
-63
-63
-63
-63
-65
-63
-61
-63
-63
-61
-59
-59
-59
-59
-57
-57
-57
-55
-53
-51
-49
-45
-43
-45
-41
-37
-37
-33
-31
-29
-25
-23
-23
-23
-25
-19
-17
-17
-17
-21
-23
-21
-25
-29
-31
-33
-35
-37
-39
-41
-41
-41
-45
-47
-49
-47
-47
-47
-49
-53
-51
-49
-47
-49
-49
-47
-49
-49
-49
-49
-47
-47
-49
-49
-47
-49
-49
-49
-51
-49
-47
-47
-45
-45
-45
-43
-41
-39
-37
-39
-37
-33
-29
-29
-27
-25
-29
-31
-33
-35
-43
-47
-51
-51
-53
-53
-53
-53
-53
-53
-55
-51
-49
-53
-51
-51
-51
-51
-45
-37
-17
15
45
71
75
53
17
3
-9
-33
-45
-51
-59
-65
-65
-63
-61
-63
-63
-63
-63
-63
-61
-61
-61
-57
-61
-59
-59
-59
-57
-55
-57
-59
-57
-55
-57
-55
-53
-55
-53
-55
-53
-53
-53
-49
-49
-49
-47
-45
-43
-43
-37
-41
-39
-39
-39
-37
-37
-39
-43
-41
-43
-47
-47
-47
-47
-49
-49
-53
-51
-47
-49
-47
-49
-49
-49
-45
-47
-47
-45
-45
-45
-43
-45
-41
-45
-43
-43
-49
-45
-43
-43
-45
-45
-47
-47
-47
-43
-47
-47
-45
-43
-45
-41
-39
-39
-41
-41
-39
-33
-31
-29
-29
-31
-35
-39
-37
-41
-51
-55
-55
-55
-57
-57
-59
-57
-53
-55
-55
-55
-53
-55
-53
-49
-51
-49
-45
-41
-23
7
43
73
87
89
57
25
11
-7
-31
-41
-49
-59
-63
-63
-63
-65
-63
-63
-63
-63
-63
-63
-61
-63
-59
-61
-59
-59
-61
-61
-59
-59
-59
-59
-63
-63
-63
-61
-61
-61
-59
-57
-57
-53
-53
-57
-51
-49
-49
-45
-43
-41
-39
-33
-33
-35
-33
-33
-37
-37
-37
-37
-39
-41
-41
-43
-43
-41
-45
-45
-45
-47
-45
-45
-47
-45
-43
-45
-47
-49
-45
-47
-45
-43
-45
-49
-47
-45
-47
-47
-47
-47
-47
-49
-47
-49
-49
-47
-51
-49
-51
-51
-49
-49
-49
-45
-43
-45
-45
-39
-37
-37
-35
-35
-31
-35
-35
-35
-37
-43
-47
-53
-55
-53
-55
-53
-51
-49
-53
-51
-51
-51
-49
-47
-47
-51
-45
-45
-45
-35
-17
15
47
75
87
77
41
17
3
-15
-35
-45
-53
-59
-65
-69
-67
-67
-71
-69
-69
-69
-67
-65
-69
-67
-63
-65
-65
-67
-63
-65
-63
-63
-65
-63
-63
-61
-63
-59
-59
-59
-59
-57
-59
-57
-51
-53
-51
-49
-43
-41
-41
-37
-35
-37
-35
-33
-31
-29
-31
-35
-37
-37
-37
-41
-39
-41
-41
-43
-45
-47
-45
-47
-49
-47
-47
-49
-51
-47
-49
-51
-49
-51
-53
-53
-47
-49
-51
-51
-51
-51
-51
-51
-53
-51
-49
-49
-49
-49
-49
-49
-51
-47
-47
-49
-47
-47
-45
-41
-39
-39
-43
-39
-35
-31
-27
-25
-27
-31
-31
-33
-35
-43
-51
-55
-53
-51
-55
-57
-53
-51
-53
-55
-55
-51
-49
-53
-53
-51
-49
-43
-25
3
33
61
77
69
35
11
-1
-21
-41
-47
-57
-65
-65
-69
-67
-65
-67
-67
-63
-63
-61
-63
-63
-61
-63
-61
-59
-59
-55
-55
-61
-59
-57
-59
-57
-53
-55
-57
-57
-55
-55
-55
-53
-53
-49
-49
-49
-45
-41
-41
-41
-41
-41
-37
-37
-37
-37
-37
-37
-39
-43
-41
-45
-47
-47
-47
-47
-51
-49
-47
-49
-53
-51
-53
-49
-49
-47
-47
-47
-49
-49
-45
-45
-47
-49
-45
-45
-45
-43
-43
-45
-45
-45
-45
-45
-43
-43
-45
-45
-45
-47
-47
-47
-45
-45
-45
-45
-43
-39
-39
-37
-35
-33
-33
-29
-29
-33
-37
-35
-41
-51
-55
-55
-57
-55
-55
-57
-57
-53
-55
-53
-55
-53
-53
-49
-51
-51
-49
-39
-19
11
37
59
81
79
47
13
1
-19
-39
-49
-55
-59
-65
-63
-59
-61
-61
-63
-61
-61
-61
-61
-63
-59
-61
-59
-61
-59
-59
-61
-61
-59
-61
-57
-57
-59
-63
-61
-57
-57
-57
-55
-55
-53
-51
-51
-47
-47
-43
-41
-37
-39
-39
-35
-37
-39
-39
-41
-41
-41
-43
-43
-49
-45
-43
-47
-45
-43
-45
-47
-47
-43
-47
-43
-45
-45
-47
-43
-45
-47
-47
-45
-45
-43
-41
-47
-45
-45
-47
-45
-45
-45
-49
-47
-49
-51
-49
-49
-47
-49
-47
-45
-45
-43
-39
-45
-43
-37
-35
-33
-29
-27
-31
-33
-35
-45
-49
-49
-51
-55
-53
-53
-55
-53
-51
-51
-49
-49
-49
-47
-45
-45
-47
-43
-37
-17
13
41
61
83
81
39
9
-5
-27
-45
-53
-59
-61
-65
-67
-67
-67
-67
-67
-67
-65
-63
-63
-65
-65
-63
-67
-63
-61
-63
-63
-61
-63
-61
-61
-61
-63
-61
-59
-61
-59
-55
-57
-55
-49
-45
-49
-45
-39
-35
-33
-31
-33
-31
-31
-31
-33
-37
-35
-39
-39
-39
-41
-43
-43
-45
-47
-43
-45
-47
-49
-47
-49
-49
-49
-45
-47
-47
-49
-51
-49
-49
-49
-47
-49
-49
-51
-49
-49
-51
-51
-49
-51
-51
-51
-49
-51
-53
-51
-51
-47
-45
-41
-39
-41
-37
-37
-33
-29
-27
-29
-31
-37
-39
-47
-49
-51
-51
-51
-53
-51
-51
-53
-53
-51
-49
-51
-47
-51
-51
-51
-43
-29
1
31
61
81
83
55
19
1
-25
-49
-57
-63
-69
-69
-69
-69
-71
-69
-69
-71
-69
-67
-67
-69
-67
-67
-67
-65
-65
-65
-65
-65
-63
-61
-63
-63
-63
-63
-61
-59
-59
-55
-57
-53
-47
-49
-51
-45
-41
-43
-39
-37
-37
-37
-35
-35
-37
-39
-41
-41
-41
-45
-43
-47
-45
-49
-51
-51
-53
-53
-51
-51
-53
-55
-51
-55
-53
-53
-53
-55
-53
-51
-51
-51
-51
-49
-49
-51
-49
-49
-49
-47
-49
-49
-47
-49
-47
-49
-47
-49
-49
-43
-43
-41
-39
-39
-37
-31
-29
-27
-27
-31
-33
-35
-35
-43
-51
-51
-51
-55
-53
-53
-55
-53
-51
-53
-53
-53
-53
-53
-51
-47
-45
-31
-5
29
55
75
67
33
5
-7
-31
-47
-53
-63
-65
-67
-69
-67
-69
-67
-67
-65
-63
-63
-63
-65
-63
-63
-59
-63
-63
-63
-61
-59
-61
-59
-59
-59
-57
-57
-57
-55
-53
-55
-55
-51
-51
-47
-47
-43
-41
-43
-41
-41
-41
-37
-39
-43
-45
-45
-47
-47
-49
-51
-53
-53
-53
-53
-53
-51
-55
-55
-53
-53
-55
-51
-51
-49
-49
-49
-51
-49
-47
-51
-51
-47
-47
-49
-49
-47
-49
-47
-45
-47
-47
-49
-49
-49
-47
-47
-47
-47
-43
-43
-41
-41
-43
-37
-31
-31
-33
-33
-33
-35
-39
-45
-53
-57
-57
-59
-61
-61
-59
-59
-59
-57
-57
-57
-57
-57
-57
-53
-51
-47
-31
-5
29
53
75
77
55
21
1
-17
-41
-47
-57
-65
-65
-69
-67
-69
-67
-67
-67
-63
-65
-65
-63
-65
-63
-63
-61
-63
-63
-63
-61
-63
-63
-65
-63
-61
-63
-65
-65
-63
-65
-61
-59
-59
-59
-55
-53
-51
-51
-51
-47
-45
-43
-41
-41
-41
-39
-39
-43
-43
-47
-45
-47
-49
-49
-51
-51
-51
-49
-51
-49
-49
-49
-47
-49
-49
-47
-47
-47
-47
-45
-49
-47
-47
-49
-47
-49
-47
-45
-43
-47
-47
-49
-47
-45
-47
-47
-49
-49
-49
-49
-51
-49
-49
-49
-45
-43
-43
-43
-41
-39
-37
-33
-33
-33
-35
-33
-37
-39
-45
-53
-57
-59
-57
-55
-55
-53
-55
-55
-53
-55
-55
-51
-47
-47
-47
-45
-45
-43
-41
-25
5
39
63
81
79
53
19
9
-7
-31
-39
-45
-57
-61
-65
-69
-69
-71
-75
-75
-71
-71
-71
-71
-69
-69
-69
-67
-67
-67
-67
-67
-65
-63
-65
-63
-67
-63
-61
-61
-59
-55
-55
-55
-55
-55
-55
-51
-49
-49
-45
-41
-41
-35
-37
-35
-35
-31
-31
-31
-29
-29
-29
-27
-29
-29
-29
-27
-35
-39
-35
-37
-35
-37
-37
-37
-41
-37
-41
-41
-43
-41
-41
-43
-45
-45
-45
-45
-47
-47
-45
-43
-45
-47
-45
-43
-45
-49
-45
-43
-41
-41
-41
-45
-45
-45
-45
-37
-33
-31
-31
-31
-33
-31
-27
-21
-17
-13
-11
-17
-23
-25
-27
-31
-35
-41
-51
-53
-55
-55
-47
-45
-53
-53
-51
-51
-49
-53
-57
-53
-53
-63
-69
-55
-17
19
31
45
45
31
-3
-25
-53
-77
-87
-97
-109
-111
-113
-109
-103
-115
-129
-127
-115
-109
-101
-99
-95
-85
-61
-39
-67
-111
-111
-85
-79
-87
-81
-73
-71
-75
-69
-59
-63
-73
-71
-67
-77
-77
-63
-57
-55
-49
-51
-61
-61
-57
-53
-57
-59
-65
-73
-73
-69
-69
-79
-91
-93
-89
-89
-89
-89
-87
-91
-91
-91
-91
-91
-99
-109
-111
-109
-107
-103
-105
-107
-111
-111
-101
-97
-103
-105
-97
-107
-113
-93
-87
-109
-117
-97
-75
-81
-99
-95
-95
-99
-95
-91
-79
-59
-57
-71
-69
-51
-51
-47
-27
-31
-35
-35
-41
-37
-19
-15
-29
-35
-21
-27
-31
-31
-31
-33
-25
-35
-47
-47
-43
-49
-85
-91
-83
-99
-127
-119
-95
-89
-77
-29
-1
-19
-53
-61
-77
-139
-153
-145
-163
-167
-161
-181
-199
-189
-181
-187
-205
-215
-199
-183
-209
-203
-183
-211
-227
-213
-215
-245
-251
-233
-241
-253
-247
-243
-253
-265
-267
-267
-265
-265
-263
-259
-269
-273
-277
-271
-267
-269
-267
-263
-261
-259
-267
-267
-259
-261
-267
-265
-259
-255
-263
-261
-257
-251
-243
-235
-241
-237
-223
-213
-213
-219
-221
-221
-217
-223
-221
-217
-215
-215
-207
-195
-193
-193
-199
-201
-213
-219
-217
-221
-225
-225
-225
-229
-227
-225
-215
-205
-193
-189
-183
-167
-167
-189
-185
-177
-173
-169
-163
-163
-159
-157
-159
-161
-163
-169
-169
-167
-163
-157
-147
-133
-121
-113
-115
-127
-139
-137
-135
-139
-143
-147
-155
-151
-141
-123
-95
-57
-31
-15
-13
-31
-47
-59
-73
-81
-81
-81
-77
-75
-77
-73
-73
-73
-73
-73
-77
-75
-75
-79
-79
-79
-87
-97
-109
-111
-119
-125
-127
-137
-137
-137
-141
-141
-141
-145
-151
-149
-139
-139
-137
-135
-131
-127
-125
-125
-127
-127
-125
-121
-119
-117
-117
-109
-103
-99
-95
-95
-89
-83
-83
-79
-79
-83
-83
-79
-83
-85
-89
-95
-95
-97
-103
-105
-109
-113
-115
-121
-121
-117
-113
-107
-101
-89
-81
-77
-75
-67
-55
-49
-39
-29
-23
-23
-21
-27
-35
-45
-59
-63
-61
-55
-55
-53
-49
-47
-49
-45
-47
-51
-51
-53
-59
-67
-67
-67
-67
-71
-71
-61
-59
-69
-75
-77
-77
-83
-87
-81
-79
-75
-65
-49
-23
11
47
79
79
53
27
19
5
-19
-33
-39
-43
-43
-43
-41
-39
-39
-35
-29
-27
