-151
-159
-163
-169
-169
-175
-173
-183
-189
-199
-197
-195
-197
-197
-209
-209
-213
-215
-213
-207
-213
-219
-217
-213
-205
-201
-197
-187
-179
-143
-97
-49
-41
-99
-197
-287
-357
-377
-341
-301
-267
-251
-225
-205
-193
-191
-189
-199
-191
-187
-193
-179
-181
-177
-175
-179
-171
-173
-173
-163
-163
-163
-167
-169
-165
-157
-165
-163
-161
-161
-159
-153
-149
-143
-147
-147
-149
-139
-133
-129
-127
-123
-121
-113
-107
-93
-93
-97
-85
-87
-79
-69
-59
-59
-55
-59
-55
-55
-55
-61
-67
-85
-91
-99
-103
-115
-135
-143
-157
-169
-181
-165
-171
-177
-181
-191
-189
-191
-189
-187
-189
-191
-193
-183
-193
-193
-187
-195
-193
-195
-193
-191
-187
-187
-189
-195
-199
-191
-185
-187
-189
-197
-199
-201
-197
-197
-205
-207
-203
-211
-207
-205
-205
-205
-207
-207
-213
-207
-201
-207
-205
-207
-213
-211
-211
-209
-199
-201
-201
-209
-203
-201
-197
-193
-201
-203
-207
-207
-195
-201
-195
-201
-203
-199
-193
-199
-197
-201
-209
-207
-205
-203
-201
-205
-209
-209
-207
-205
-205
-195
-205
-197
-211
-205
-207
-205
-199
-203
-203
-209
-209
-207
-205
-205
-209
-211
-211
-207
-201
-199
-205
-203
-207
-207
-199
-193
-189
-183
-183
-185
-183
-167
-157
-157
-155
-161
-167
-173
-169
-173
-179
-183
-201
-197
-197
-193
-199
-199
-207
-213
-213
-201
-205
-209
-211
-205
-207
-201
-199
-191
-181
-141
-107
-53
-23
-61
-157
-257
-367
-399
-369
-325
-285
-253
-225
-207
-201
-197
-193
-189
-185
-187
-181
-183
-179
-177
-171
-169
-171
-169
-165
-165
-161
-155
-153
-159
-157
-151
-149
-143
-143
-141
-133
-133
-129
-123
-123
-115
-117
-115
-111
-95
-85
-79
-69
-79
-71
-57
-57
-55
-43
-45
-37
-39
-41
-41
-43
-49
-53
-63
-71
-73
-85
-95
-109
-123
-127
-135
-145
-151
-155
-159
-167
-167
-171
-169
-167
-173
-175
-175
-177
-177
-173
-165
-167
-177
-175
-171
-163
-157
-165
-167
-171
-173
-169
-165
-159
-171
-171
-179
-175
-171
-169
-169
-177
-177
-183
-185
-179
-177
-179
-183
-185
-193
-187
-189
-195
-193
-197
-195
-199
-197
-195
-191
-201
-211
-207
-199
-195
-191
-197
-193
-201
-199
-195
-193
-193
-189
-187
-189
-197
-195
-189
-187
-187
-189
-187
-187
-189
-183
-181
-183
-187
-193
-189
-181
-175
-175
-179
-177
-185
-177
-175
-179
-185
-187
-181
-185
-187
-181
-183
-185
-189
-183
-183
-183
-183
-183
-183
-181
-189
-191
-179
-177
-183
-185
-187
-181
-175
-171
-163
-167
-163
-157
-155
-143
-135
-145
-149
-157
-161
-165
-163
-163
-171
-175
-185
-183
-183
-183
-185
-197
-191
-191
-191
-185
-175
-177
-183
-185
-189
-183
-169
-135
-89
-39
-1
-21
-103
-199
-305
-359
-351
-307
-263
-227
-199
-185
-185
-185
-185
-179
-173
-173
-175
-175
-177
-177
-167
-165
-169
-167
-169
-169
-171
-165
-153
-155
-159
-159
-159
-151
-145
-147
-139
-143
-143
-141
-127
-127
-127
-123
-115
-111
-109
-95
-95
-81
-83
-77
-71
-61
-49
-43
-37
-37
-37
-31
-27
-23
-25
-31
-29
-35
-47
-49
-55
-73
-85
-103
-113
-121
-129
-135
-151
-159
-167
-173
-177
-173
-173
-177
-179
-191
-185
-177
-175
-183
-183
-181
-187
-183
-179
-167
-173
-175
-181
-177
-169
-173
-171
-175
-183
-183
-171
-175
-175
-177
-177
-185
-187
-185
-181
-181
-181
-183
-193
-189
-187
-191
-199
-199
-195
-193
-195
-195
-199
-203
-209
-209
-215
-209
-205
-201
-205
-205
-211
-207
-207
-207
-203
-209
-209
-209
-209
-209
-209
-205
-211
-203
-213
-207
-201
-203
-201
-203
-207
-211
-205
-201
-199
-201
-205
-203
-205
-205
-197
-197
-199
-199
-205
-199
-199
-193
-197
-201
-195
-207
-195
-197
-201
-199
-201
-201
-205
-203
-207
-199
-205
-207
-207
-205
-201
-205
-197
-199
-203
-207
-209
-207
-197
-197
-197
-195
-199
-189
-185
-181
-177
-171
-169
-175
-163
-171
-167
-175
-185
-187
-195
-201
-199
-199
-195
-205
-207
-213
-209
-207
-205
-203
-207
-205
-199
-197
-195
-199
-205
-199
-165
-135
-81
-45
-37
-105
-213
-315
-385
-391
-363
-319
-293
-265
-225
-209
-199
-203
-201
-203
-203
-193
-187
-187
-189
-193
-197
-193
-185
-183
-175
-177
-171
-185
-175
-167
-167
-169
-171
-173
-161
-159
-163
-153
-157
-153
-149
-145
-139
-125
-119
-117
-111
-105
-97
-93
-75
-75
-73
-67
-61
-47
-41
-43
-45
-47
-51
-55
-51
-63
-65
-89
-105
-113
-123
-131
-145
-155
-159
-175
-183
-187
-183
-191
-193
-199
-201
-203
-203
-195
-193
-199
-201
-199
-201
-193
-193
-197
-195
-197
-189
-189
-191
-183
-185
-187
-193
-193
-187
-181
-187
-191
-197
-195
-195
-193
-191
-195
-197
-195
-207
-205
-205
-205
-209
-215
-213
-207
-207
-209
-215
-215
-221
-221
-221
-213
-221
-217
-221
-221
-221
-219
-217
-217
-225
-223
-227
-223
-225
-219
-217
-217
-219
-229
-221
-217
-213
-209
-223
-221
-227
-221
-219
-215
-215
-219
-223
-221
-215
-211
-213
-215
-217
-217
-219
-219
-211
-211
-219
-219
-219
-219
-221
-221
-219
-223
-223
-225
-223
-215
-225
-221
-221
-225
-215
-215
-211
-217
-223
-225
-225
-223
-225
-219
-225
-213
-221
-217
-209
-197
-193
-191
-195
-193
-179
-175
-173
-173
-185
-189
-191
-189
-195
-199
-207
-215
-219
-213
-217
-215
-215
-217
-217
-219
-215
-207
-207
-211
-213
-221
-221
-209
-183
-143
-93
-33
-25
-67
-161
-265
-353
-385
-359
-317
-281
-249
-221
-205
-209
-211
-221
-207
-203
-201
-207
-199
-199
-199
-197
-195
-201
-189
-193
-193
-185
-185
-177
-175
-177
-183
-177
-171
-167
-159
-159
-157
-165
-163
-145
-139
-135
-133
-125
-127
-117
-109
-97
-87
-85
-81
-75
-71
-57
-55
-53
-59
-65
-63
-57
-57
-69
-81
-95
-113
-119
-129
-143
-149
-165
-183
-195
-193
-195
-193
-195
-205
-213
-217
-211
-211
-203
-205
-215
-217
-219
-209
-203
-207
-211
-213
-211
-209
-209
-199
-201
-203
-205
-203
-205
-199
-197
-199
-201
-209
-207
-199
-201
-201
-207
-215
-219
-217
-215
-207
-209
-213
-215
-217
-219
-217
-217
-219
-219
-225
-227
-219
-211
-219
-225
-223
-229
-227
-223
-223
-229
-235
-233
-235
-229
-227
-229
-223
-227
-233
-235
-231
-225
-221
-227
-227
-225
-227
-217
-217
-213
-215
-223
-221
-217
-213
-217
-215
-217
-225
-225
-221
-221
-215
-221
-225
-219
-227
-215
-221
-221
-223
-223
-225
-225
-219
-219
-231
-229
-239
-235
-225
-227
-223
-223
-229
-233
-231
-223
-223
-225
-233
-231
-233
-229
-223
-227
-227
-227
-231
-235
-227
-223
-219
-225
-221
-223
-221
-217
-215
-213
-215
-211
-205
-197
-193
-195
-187
-179
-177
-181
-173
-175
-179
-181
-183
-201
-209
-209
-203
-213
-215
-223
-223
-223
-223
-227
-225
-233
-231
-233
-225
-225
-225
-225
-221
-215
-187
-137
-79
-45
-83
-157
-277
-369
-399
-377
-331
-285
-257
-237
-217
-219
-217
-219
-213
-217
-205
-207
-199
-197
-203
-201
-211
-203
-197
-193
-195
-191
-197
-191
-189
-183
-181
-185
-181
-183
-183
-173
-173
-169
-169
-167
-165
-161
-157
-149
-143
-143
-135
-125
-119
-107
-105
-101
-97
-85
-85
-77
-79
-75
-77
-89
-85
-85
-97
-99
-111
-129
-135
-155
-163
-171
-175
-191
-205
-205
-211
-209
-211
-211
-209
-223
-219
-215
-215
-213
-205
-207
-209
-213
-209
-209
-209
-203
-203
-205
-211
-213
-201
-205
-209
-209
-211
-211
-207
-201
-219
-217
-219
-225
-217
-217
-215
-215
-217
-227
-229
-227
-227
-225
-229
-229
-233
-229
-231
-229
-229
-231
-233
-235
-235
-231
-227
-223
-225
-227
-227
-225
-229
-219
-217
-227
-227
-221
-219
-219
-221
-215
-225
-229
-225
-221
-217
-215
-219
-223
-223
-221
-219
-221
-221
-217
-227
-225
-217
-215
-219
-225
-219
-227
-223
-223
-217
-219
-231
-227
-235
-221
-221
-225
-223
-229
-229
-229
-233
-225
-227
-231
-229
-233
-227
-221
-223
-225
-227
-225
-225
-225
-221
-217
-215
-217
-223
-217
-215
-213
-205
-197
-201
-201
-189
-183
-173
-173
-173
-179
-179
-181
-185
-187
-197
-209
-213
-223
-217
-213
-211
-217
-223
-229
-231
-225
-221
-221
-225
-221
-223
-225
-213
-211
-205
-203
-179
-143
-99
-43
-43
-97
-203
-315
-393
-411
-379
-331
-297
-269
-237
-215
-203
-201
-203
-203
-201
-195
-193
-185
-185
-185
-191
-195
-189
-179
-173
-181
-179
-179
-175
-179
-171
-169
-171
-175
-175
-173
-171
-161
-157
-151
-153
-157
-151
-145
-137
-125
-125
-119
-119
-113
-101
-91
-79
-87
-85
-75
-73
-63
-67
-71
-69
-73
-75
-83
-89
-93
-111
-117
-129
-137
-145
-151
-159
-173
-183
-191
-189
-189
-193
-193
-197
-201
-199
-197
-191
-197
-207
-199
-199
-195
-185
-191
-193
-201
-197
-197
-201
-195
-201
-191
-199
-199
-197
-201
-195
-201
-201
-207
-203
-201
-203
-197
-201
-211
-215
-213
-217
-215
-215
-213
-221
-221
-219
-213
-213
-215
-215
-217
-215
-219
-213
-215
-215
-215
-213
-215
-209
-207
-207
-207
-209
-217
-217
-215
-211
-203
-211
-213
-211
-209
-207
-207
-213
-209
-215
-213
-207
-209
-203
-211
-209
-215
-217
-211
-203
-207
-209
-209
-217
-209
-213
-213
-213
-219
-223
-225
-215
-215
-207
-213
-211
-213
-219
-213
-213
-211
-215
-213
-215
-213
-211
-199
-201
-203
-211
-213
-203
-203
-201
-201
-205
-205
-203
-205
-193
-195
-199
-201
-201
-201
-193
-185
-177
-181
-185
-177
-167
-163
-163
-163
-171
-179
-175
-177
-173
-189
-197
-195
-209
-207
-205
-205
-209
-211
-223
-223
-215
-219
-209
-217
-219
-221
-221
-209
-205
-199
-179
-141
-83
-37
-31
-85
-187
-295
-367
-373
-331
-275
-235
-213
-197
-195
-185
-191
-179
-177
-173
-181
-179
-177
-169
-165
-167
-169
-167
-165
-167
-165
-161
-167
-165
-159
-165
-155
-151
-147
-151
-155
-151
-151
-147
-135
-135
-131
-129
-125
-121
-111
-107
-97
-91
-87
-85
-77
-61
-61
-51
-47
-51
-53
-49
-41
-41
-45
-49
-53
-69
-75
-85
-95
-111
-125
-137
-145
-147
-161
-165
-173
-183
-181
-187
-177
-179
-185
-189
-185
-191
-185
-189
-187
-187
-193
-189
-187
-183
-189
-193
-189
-193
-195
-193
-179
-185
-193
-195
-199
-197
-197
-195
-199
-197
-205
-201
-207
-201
-201
-203
-203
-201
-207
-205
-201
-193
-201
-205
-209
-211
-207
-197
-193
-203
-205
-201
-207
-201
-199
-201
-205
-199
-203
-201
-199
-195
-201
-205
-209
-205
-197
-193
-197
-203
-209
-207
-205
-201
-193
-197
-203
-205
-201
-207
-199
-203
-207
-213
-209
-211
-209
-205
-205
-209
-213
-211
-217
-211
-203
-207
-207
-213
-215
-207
-203
-205
-209
-207
-207
-207
-201
-201
-201
-201
-211
-209
-201
-199
-199
-199
-205
-207
-209
-203
-195
-199
-195
-195
-197
-189
-185
-185
-177
-185
-177
-173
-165
-157
-163
-165
-169
-181
-189
-185
-185
-195
-207
-209
-213
-213
-211
-209
-209
-217
-225
-221
-221
-217
-215
-215
-211
-221
-213
-209
-209
-191
-159
-121
-69
-39
-73
-151
-265
-359
-399
-383
-345
-299
-263
-225
-209
-197
-193
-191
-193
-181
-181
-183
-187
-179
-179
-173
-173
-175
-175
-169
-175
-171
-169
-165
-169
-173
-169
-177
-159
-155
-155
-163
-159
-153
-151
-147
-141
-143
-143
-139
-129
-121
-111
-101
-99
-89
-85
-77
-69
-55
-61
-53
-57
-47
-45
-49
-47
-55
-61
-75
-81
-91
-99
-111
-127
-135
-149
-159
-163
-173
-177
-185
-191
-191
-189
-185
-183
-191
-193
-197
-201
-195
-193
-191
-195
-201
-205
-201
-197
-185
-195
-201
-199
-205
-195
-195
-191
-197
-201
-211
-215
-211
-207
-209
-205
-215
-221
-221
-215
-217
-217
-217
-221
-221
-219
-213
-209
-217
-215
-219
-213
-219
-213
-211
-221
-219
-215
-217
-213
-211
-213
-213
-211
-217
-215
-213
-209
-213
-223
-219
-219
-217
-209
-211
-221
-213
-219
-217
-219
-217
-227
-217
-225
-229
-221
-215
-221
-225
-227
-231
-229
-231
-227
-215
-221
-225
-227
-223
-225
-229
-221
-221
-229
-221
-221
-213
-211
-221
-223
-215
-223
-211
-209
-207
-209
-211
-217
-217
-217
-211
-213
-211
-215
-215
-209
-207
-207
-207
-211
-217
-205
-201
-189
-183
-189
-195
-197
-187
-175
-177
-169
-175
-183
-189
-187
-189
-197
-207
-219
-225
-227
-221
-223
-221
-225
-231
-239
-233
-235
-229
-223
-231
-233
-233
-227
-223
-215
-211
-187
-139
-87
-41
-39
-95
-211
-315
-385
-397
-359
-311
-271
-255
-237
-219
-213
-209
-213
-211
-211
-205
-207
-199
-201
-193
-201
-199
-199
-199
-191
-191
-185
-185
-191
-193
-191
-183
-185
-173
-187
-177
-175
-179
-169
-175
-167
-165
-163
-155
-151
-143
-137
-133
-129
-121
-115
-99
-83
-85
-81
-83
-75
-63
-67
-57
-61
-59
-63
-67
-73
-77
-91
-105
-117
-137
-151
-155
-161
-171
-179
-189
-199
-199
-201
-201
-201
-209
-209
-207
-211
-209
-207
-209
-213
-213
-211
-203
-203
-203
-211
-217
-219
-215
-213
-211
-213
-217
-217
-221
-217
-213
-219
-217
-221
-227
-227
-223
-223
-217
-223
-229
-225
-225
-221
-225
-227
-225
-229
-227
-233
-225
-227
-227
-225
-233
-229
-225
-227
-223
-229
-231
-235
-233
-229
-229
-229
-233
-239
-233
-233
-237
-229
-235
-241
-239
-237
-233
-231
-235
-235
-243
-239
-239
-237
-229
-241
-245
-243
-245
-239
-233
-233
-231
-237
-245
-243
-235
-227
-235
-239
-237
-237
-229
-227
-231
-231
-227
-225
-229
-229
-223
-223
-223
-233
-227
-231
-223
-221
-225
-229
-225
-233
-231
-223
-227
-229
-231
-227
-227
-229
-225
-217
-221
-225
-221
-207
-207
-205
-207
-209
-203
-205
-195
-187
-187
-199
-201
-209
-217
-219
-223
-227
-235
-239
-237
-233
-231
-235
-245
-241
-245
-237
-243
-239
-233
-229
-225
-243
-235
-225
-205
-175
-121
-77
-69
-99
-189
-291
-377
-415
-409
-371
-323
-297
-261
-233
-229
-223
-229
-229
-219
-211
-215
-221
-221
-223
-215
-215
-209
-209
-213
-213
-211
-209
-207
-205
-209
-201
-205
-199
-193
-195
-185
-197
-197
-187
-179
-175
-169
-177
-173
-161
-153
-149
-137
-127
-123
-121
-111
-99
-101
-83
-83
-79
-83
-79
-79
-71
-69
-77
-93
-95
-115
-117
-135
-149
-163
-177
-187
-185
-191
-195
-201
-215
-215
-215
-215
-215
-215
-213
-217
-225
-223
-223
-221
-217
-221
-227
-231
-219
-225
-223
-221
-221
-231
-229
-223
-219
-215
-219
-225
-223
-229
-221
-223
-221
-223
-229
-231
-229
-219
-227
-227
-229
-231
-229
-225
-221
-221
-229
-231
-233
-237
-231
-233
-229
-231
-237
-241
-241
-237
-233
-231
-235
-241
-241
-241
-235
-237
-239
-245
-245
-243
-239
-237
-233
-241
-241
-243
-239
-241
-235
-235
-233
-239
-237
-241
-231
-231
-239
-237
-239
-239
-237
-229
-231
-231
-241
-235
-233
-231
-225
-223
-223
-231
-225
-227
-227
-215
-225
-221
-225
-223
-225
-219
-223
-227
-235
-225
-225
-221
-221
-219
-225
-231
-233
-229
-227
-223
-211
-221
-215
-211
-205
-203
-191
-191
-191
-199
-193
-191
-193
-201
-211
-217
-223
-225
-227
-221
-227
-227
-233
-237
-235
-237
-235
-231
-237
-227
-231
-227
-215
-219
-219
-221
-197
-163
-115
-75
-35
-63
-141
-233
-321
-375
-381
-351
-315
-289
-255
-229
-213
-213
-215
-219
-221
-213
-207
-209
-211
-209
-213
-209
-203
-203
-203
-203
-207
-201
-201
-201
-201
-195
-199
-199
-203
-189
-187
-177
-177
-183
-179
-175
-163
-163
-155
-151
-149
-145
-133
-123
-119
-107
-99
-103
-93
-89
-85
-73
-67
-67
-69
-63
-57
-61
-73
-79
-87
-103
-113
-125
-131
-145
-161
-179
-187
-187
-191
-195
-197
-199
-207
-211
-217
-213
-215
-209
-217
-225
-217
-217
-215
-213
-219
-223
-215
-215
-215
-209
-205
-211
-215
-213
-211
-213
-209
-211
-215
-215
-213
-213
-209
-215
-213
-219
-219
-213
-213
-209
-213
-221
-223
-221
-221
-219
-225
-219
-225
-223
-225
-219
-223
-225
-227
-233
-231
-227
-229
-229
-233
-239
-243
-239
-231
-229
-229
-225
-239
-237
-235
-237
-235
-231
-233
-231
-243
-233
-237
-233
-237
-237
-239
-245
-237
-231
-233
-235
-243
-235
-235
-233
-231
-233
-231
-235
-231
-233
-225
-223
-223
-229
-229
-227
-229
-217
-225
-225
-225
-233
-229
-225
-225
-221
-227
-227
-231
-229
-223
-225
-229
-225
-231
-237
-225
-221
-225
-231
-237
-233
-243
-227
-229
-225
-215
-213
-211
-211
-199
-199
-193
-195
-193
-197
-201
-199
-203
9
9
-233
-233
-231
-225
-225
-227
-237
-241
-239
-233
-227
-231
-231
-235
-237
-233
-229
-225
-221
-207
-181
-139
-95
-57
-87
-175
-277
-361
-407
-397
-357
-317
-293
-263
-245
-231
-227
-233
-231
-227
-227
-225
-221
-217
-215
-217
-219
-217
-217
-209
-207
-207
-215
-211
-207
-207
-203
-207
-197
-199
-203
-199
-193
-189
-187
-183
-183
-181
-173
-171
-165
-155
-153
-147
-143
-133
-121
-113
-101
-103
-105
-101
-91
-83
-83
-79
-79
-87
-95
-99
-105
-111
-123
-135
-153
-163
-171
-173
-191
-195
-213
-217
-223
-225
-229
-233
-231
-237
-239
-233
-227
-231
-235
-227
-231
-231
-229
-227
-231
-227
-233
-227
-229
-225
-221
-225
-223
-229
-227
-225
-215
-221
-225
-227
-235
-227
-229
-227
-225
-229
-233
-233
-237
-231
-233
-239
-241
-241
-245
-237
-249
-241
-245
-247
-249
-251
-245
-241
-241
-251
-245
-249
-251
-253
-241
-245
-251
-253
-255
-249
-247
-251
-251
-255
-261
-259
-259
-251
-245
-251
-251
-261
-251
-245
-247
-251
-249
-247
-247
-251
-245
-247
-249
-251
-249
-253
-249
-247
-243
-249
-251
-257
-253
-251
-249
-245
-247
-247
-245
-241
-243
-249
-243
-251
-255
-245
-249
-245
-239
-249
-251
-251
-253
-243
-239
-237
-235
-237
-233
-227
-215
-207
-207
-207
-215
-213
-215
-211
-213
-221
-233
-239
-243
-239
-241
-241
-239
-247
-253
-249
-241
-243
-243
-241
-243
-239
-237
-233
-235
-229
-211
-189
-145
-87
-55
-69
-145
-255
-349
-405
-407
-369
-331
-303
-279
-251
-233
-227
-229
-237
-239
-237
-225
-225
-225
-223
-221
-227
-229
-225
-223
-221
-217
-221
-225
-219
-213
-209
-201
-207
-209
-213
-201
-197
-193
-191
-191
-191
-191
-185
-179
-175
-167
-163
-161
-155
-147
-135
-125
-125
-119
-117
-117
-107
-99
-95
-91
-97
-95
-97
-93
-97
-111
-119
-135
-143
-151
-159
-171
-185
-197
-207
-211
-213
-217
-223
-231
-233
-235
-247
-237
-233
-239
-243
-245
-243
-241
-235
-237
-239
-239
-239
-235
-237
-227
-225
-231
-233
-239
-233
-231
-227
-229
-227
-233
-233
-229
-229
-233
-233
-231
-233
-239
-235
-235
-231
-239
-239
-239
-243
-245
-241
-243
-249
-247
-253
-247
-247
-243
-247
-249
-253
-253
-251
-243
-253
-253
-255
-259
-249
-257
-253
-249
-255
-255
-255
-253
-247
-251
-251
-253
-245
-257
-249
-245
-249
-251
-249
-251
-245
-245
-243
-237
-245
-255
-251
-249
-237
-243
-249
-253
-251
-253
-241
-235
-239
-245
-249
-245
-251
-241
-243
-239
-243
-247
-249
-249
-243
-247
-247
-249
-249
-251
-247
-249
-249
-253
-255
-249
-255
-251
-247
-239
-237
-241
-233
-227
-229
-219
-211
-209
-207
-205
-209
-209
-209
-213
-229
-229
-235
-233
-233
-231
-233
-243
-247
-245
-247
-241
-241
-245
-249
-251
-243
-239
-241
-235
-241
-235
-217
-183
-125
-73
-55
-99
-197
-311
-385
-413
-379
-333
-303
-269
-249
-237
-233
-239
-241
-241
-239
-229
-233
-235
-227
-227
-229
-221
-219
-217
-221
-217
-217
-223
-219
-215
-207
-207
-209
-211
-203
-203
-199
-193
-193
-193
-195
-185
-169
-175
-171
-159
-163
-157
-145
-137
-129
-121
-125
-117
-113
-109
-103
-97
-91
-101
-103
-103
-103
-115
-121
-131
-149
-161
-171
-181
-187
-203
-213
-215
-225
-231
-237
-231
-239
-241
-239
-243
-243
-235
-249
-241
-249
-239
-237
-233
-233
-235
-233
-241
-239
-239
-235
-231
-233
-233
-233
-233
-227
-227
-231
-225
-235
-233
-235
-229
-233
-231
-239
-241
-251
-241
-243
-239
-241
-241
-243
-247
-245
-247
-245
-245
-251
-251
-249
-249
-247
-247
-255
-259
-257
-247
-245
-245
-251
-251
-257
-255
-255
-249
-251
-253
-247
-247
-245
-241
-251
-239
-249
-245
-245
-241
-241
-245
-239
-249
-247
-239
-235
-233
-237
-237
-239
-235
-237
-231
-227
-233
-237
-239
-237
-239
-233
-235
-233
-241
-243
-245
-233
-241
-233
-241
-243
-241
-243
-235
-241
-235
-243
-239
-243
-237
-231
-219
-225
-233
-227
-215
-211
-201
-199
-203
-213
-219
-225
-223
-225
-231
-245
-237
-247
-239
-245
-243
-247
-259
-251
-251
-245
-239
-237
-245
-241
-239
-235
-209
-173
-125
-77
-51
-105
-205
-313
-399
-441
-421
-379
-339
-309
-273
-247
-237
-233
-237
-235
-229
-223
-221
-223
-229
-221
-221
-213
-213
-217
-217
-225
-213
-211
-205
-205
-207
-209
-207
-207
-203
-199
-197
-195
-195
-189
-189
-181
-175
-171
-173
-163
-167
-153
-141
-133
-131
-123
-123
-115
-105
-95
-89
-79
-81
-85
-79
-73
-79
-79
-87
-91
-93
-101
-107
-121
-137
-147
-161
-167
-179
-183
-187
-199
-205
-209
-217
-211
-217
-217
-223
-223
-223
-221
-213
-217
-217
-223
-227
-225
-219
-221
-221
-219
-223
-227
-227
-221
-217
-209
-213
-225
-215
-217
-213
-215
-213
-223
-223
-219
-225
-215
-219
-217
-229
-225
-223
-217
-221
-219
-225
-227
-221
-225
-219
-221
-227
-235
-231
-229
-233
-227
-227
-229
-231
-237
-231
-229
-233
-235
-233
-235
-241
-235
-233
-231
-229
-235
-233
-233
-231
-229
-231
-231
-237
-229
-229
-227
-225
-225
-225
-229
-225
-217
-223
-211
-219
-223
-225
-225
-213
-215
-211
-211
-217
-221
-221
-217
-219
-219
-221
-223
-221
-217
-215
-215
-217
-221
-225
-225
-215
-223
-217
-221
-215
-223
-213
-211
-201
-203
-203
-199
-193
-189
-181
-185
-187
-195
-207
-201
-205
-201
-215
-221
-229
-225
-225
-223
-227
-227
-233
-239
-229
-237
-231
-227
-227
-231
-227
-225
-217
-205
-169
-127
-77
-35
-37
-101
-201
-303
-373
-389
-361
-305
-275
-241
-225
-219
-215
-215
-209
-211
-205
-203
-203
-213
-209
-197
-195
-199
-197
-195
-195
-195
-191
-189
-187
-189
-185
-193
-187
-175
-177
-181
-171
-175
-167
-159
-155
-151
-147
-143
-143
-137
-127
-115
-111
-109
-101
-101
-81
-75
-71
-65
-67
-67
-61
-53
-55
-59
-69
-73
-91
-105
-109
-125
-129
-155
-163
-177
-179
-183
-191
-193
-199
-209
-213
-213
-211
-213
-213
-213
-217
-217
-217
-213
-213
-221
-223
-215
-219
-213
-211
-217
-215
-215
-215
-207
-211
-207
-209
-215
-215
-213
-213
-213
-215
-219
-223
-223
-221
-223
-217
-223
-231
-225
-227
-221
-219
-221
-227
-231
-229
-227
-225
-227
-223
-231
-237
-231
-235
-233
-229
-231
-237
-239
-239
-235
-233
-227
-235
-233
-241
-233
-229
-235
-235
-235
-239
-239
-239
-227
-227
-225
-227
-233
-237
-233
-227
-223
-227
-227
-231
-229
-227
-223
-223
-225
-223
-229
-225
-223
-215
-219
-225
-227
-221
-221
-215
-221
-223
-223
-225
-225
-221
-227
-223
-223
-225
-229
-223
-223
-225
-225
-229
-233
-227
-223
-213
-207
-209
-213
-209
-211
-195
-189
-189
-191
-199
-199
-205
-199
-207
-213
-229
-235
-233
-233
-227
-227
-235
-233
-239
-237
-231
-227
-235
-231
-225
-223
-223
-207
-175
-131
-77
-59
-101
-189
-311
-389
-409
-375
-339
-303
-273
-243
-225
-219
-223
-227
-223
-219
-211
-213
-217
-215
-217
-213
-209
-205
-207
-209
-207
-207
-207
-199
-197
-191
-203
-197
-199
-191
-185
-179
-173
-175
-177
-167
-161
-159
-151
-145
-147
-139
-129
-113
-107
-103
-97
-87
-89
-69
-67
-63
-65
-67
-65
-63
-65
-73
-79
-89
-105
-117
-125
-137
-147
-163
-177
-187
-183
-187
-195
-211
-207
-213
-213
-217
-219
-215
-215
-217
-221
-223
-221
-219
-217
-219
-219
-227
-219
-221
-209
-213
-215
-217
-219
-217
-209
-215
-221
-215
-219
-219
-219
-213
-217
-223
-219
-227
-227
-225
-221
-219
-225
-227
-225
-231
-223
-221
-221
-229
-233
-233
-233
-229
-227
-227
-229
-229
-233
-229
-231
-225
-233
-233
-239
-229
-231
-229
-235
-231
-243
-235
-235
-241
-237
-235
-237
-239
-239
-233
-227
-229
-233
-229
-239
-233
-231
-227
-227
-229
-225
-229
-227
-227
-223
-227
-227
-229
-231
-221
-217
-223
-227
-217
-223
-225
-219
-211
-217
-217
-221
-221
-223
-221
-215
-211
-209
-215
-199
-199
-195
-189
-193
-185
-191
-191
-183
-187
-197
-197
-205
-209
-219
-225
-227
-219
-225
-231
-229
-231
-227
-229
-225
-233
-233
-227
-223
-217
-217
-221
-217
-203
-173
-115
7
7
7
-147
-265
-357
-385
-353
-313
-281
-253
-223
-201
-197
-193
-205
-209
-207
-199
-199
-195
-193
-195
-193
-195
-195
-191
-191
-189
-195
-199
-193
-187
-179
-185
-187
-187
-187
-179
-179
-171
-167
-167
-169
-163
-159
-145
-143
-141
-145
-135
-129
-117
-103
-97
-99
-97
-87
-79
-71
-67
-63
-67
-75
-77
-77
-73
-91
-97
-113
-123
-135
-143
-155
-169
-175
-185
-185
-195
-191
-193
-193
-205
-207
-209
-205
-209
-207
-205
-205
-209
-207
-199
-197
-203
-207
-209
-215
-203
-199
-199
-207
-203
-215
-217
-211
-209
-209
-207
-213
-221
-217
-215
-215
-209
-213
-219
-225
-217
-217
-217
-211
-219
-221
-221
-217
-215
-219
-219
-217
-223
-223
-217
-213
-213
-211
-215
-217
-217
-213
-219
-217
-219
-223
-225
-221
-217
-215
-219
-229
-229
-229
-223
-223
-223
-223
-227
-229
-223
-227
-225
-225
-227
-229
-231
-219
-221
-225
-225
-229
-229
-227
-229
-217
-215
-217
-225
-225
-223
-221
-213
-213
-225
-227
-221
-223
-211
-211
-217
-215
-219
-217
-213
-211
-211
-211
-211
-211
-209
-203
-191
-191
-185
-179
-179
-183
-179
-183
-191
-195
-199
-203
-207
-209
-213
-219
-229
-227
-225
-225
-219
-221
-225
-231
-233
-221
-223
-225
-225
-221
-223
-215
-181
-141
-93
-47
-41
-111
-207
-295
-363
-381
-347
-309
-279
-253
-223
-213
-203
-209
-213
-211
-205
-195
-193
-193
-193
-193
-191
-189
-183
-185
-187
-189
-193
-189
-183
-181
-183
-183
-187
-183
-179
-173
-175
-181
-177
-177
-175
-165
-161
-157
-157
-157
-147
-137
-131
-117
-115
-107
-107
-103
-89
-79
-71
-75
-75
-75
-67
-67
-65
-75
-79
-93
-109
-117
-117
-129
-145
-155
-165
-179
-183
-185
-193
-195
-203
-205
-199
-199
-197
-205
-211
-211
-219
-215
-207
-203
-205
-209
-217
-211
-209
-209
-207
-213
-211
-211
-211
-207
-201
-203
-211
-217
-223
-213
-219
-211
-215
-221
-221
-223
-219
-219
-215
-225
-223
-227
-225
-219
-215
-219
-223
-225
-229
-221
-215
-217
-221
-223
-221
-223
-227
-219
-217
-217
-221
-221
-217
-217
-213
-219
-219
-223
-223
-223
-225
-223
-225
-227
-227
-227
-227
-227
-221
-217
-227
-231
-225
-223
-221
-223
-225
-231
-229
-235
-225
-227
-227
-225
-225
-235
-231
-223
-227
-227
-231
-229
-237
-231
-225
-217
-225
-227
-223
-223
-221
-217
-217
-219
-225
-217
-211
-205
-199
-205
-207
-201
-195
-181
-177
-177
-179
-183
-195
-197
-193
-207
-213
-217
-225
-233
-233
-227
-227
-227
-233
-235
-233
-231
-229
-231
-231
-229
-235
-229
-225
-221
-215
-187
-157
-113
-71
-53
-99
-203
-303
-387
-427
-399
-347
-311
-283
-255
-229
-221
-209
-205
-207
-201
-205
-203
-203
-201
-199
-191
-191
-189
-199
-185
-187
-187
-191
-189
-193
-185
-185
-177
-177
-183
-179
-183
-175
-175
-169
-161
-161
-165
-155
-147
-135
-133
-129
-133
-125
-119
-111
-101
-97
-91
-93
-85
-79
-75
-69
-71
-79
-79
-81
-89
-87
-97
-107
-123
-137
-143
-149
-159
-165
-173
-183
-189
-197
-191
-195
-195
-199
-203
-201
-205
-199
-199
-197
-203
-205
-207
-201
-201
-197
-199
-203
-207
-203
-195
-201
-201
-211
-203
-207
-205
-207
-207
-207
-211
-219
-215
-217
-213
-215
-215
-223
-219
-223
-217
-213
-211
-217
-223
-219
-217
-213
-213
-215
-217
-223
-215
-217
-215
-213
-217
-219
-217
-217
-211
-211
-217
-211
-221
-217
-215
-211
-207
-207
-203
-217
-215
-205
-209
-219
-207
-221
-213
-215
-213
-209
-207
-221
-217
-217
-217
-215
-213
-217
-219
-217
-225
-217
-219
-215
-215
-215
-221
-217
-209
-215
-207
-219
-221
-217
-219
-207
-209
-207
-207
-207
-197
-193
-187
-187
-179
-173
-175
-171
-171
-171
-181
-185
-191
-195
-197
-203
-207
-211
-213
-219
-219
-225
-217
-215
-221
-219
-229
-227
-221
-219
-215
-219
-213
-199
