-127
-137
-133
-135
-137
-141
-135
-137
-139
-143
-137
-141
-137
-139
-141
-135
-135
-141
-143
-133
-135
-139
-141
-133
-135
-141
-137
-137
-139
-135
-135
-137
-141
-137
-135
-133
-127
-127
-125
-121
-117
-121
-113
-115
-117
-127
-117
-121
-129
-127
-127
-139
-135
-141
-147
-141
-149
-147
-153
-153
-151
-159
-163
-159
-159
-163
-161
-157
-159
-161
-159
-163
-159
-153
-159
-161
-157
-157
-153
-151
-149
-145
-137
-131
-123
-97
-53
-9
11
19
-7
-29
5
73
137
177
181
139
87
31
-35
-107
-163
-189
-205
-199
-189
-177
-167
-163
-169
-169
-161
-163
-161
-167
-159
-157
-163
-153
-155
-155
-151
-153
-155
-143
-141
-139
-137
-131
-131
-129
-125
-117
-113
-107
-97
-93
-93
-89
-75
-73
-69
-57
-51
-45
-39
-39
-33
-43
-49
-57
-73
-77
-85
-93
-93
-103
-103
-107
-105
-109
-113
-113
-115
-115
-117
-117
-119
-113
-113
-115
-115
-111
-121
-121
-113
-115
-123
-119
-113
-119
-117
-117
-119
-123
-121
-115
-121
-127
-123
-123
-121
-123
-127
-127
-123
-123
-127
-125
-119
-131
-127
-123
-127
-119
-119
-117
-113
-109
-107
-95
-99
-97
-101
-99
-97
-103
-109
-109
-113
-117
-113
-113
-117
-121
-125
-121
-123
-117
-121
-125
-123
-119
-125
-125
-125
-119
-127
-123
-123
-125
-125
-119
-125
-127
-125
-121
-117
-121
-113
-109
-99
-83
-59
-21
23
47
29
15
15
35
99
171
209
215
181
137
85
19
-57
-125
-159
-169
-173
-161
-145
-135
-143
-137
-131
-135
-135
-133
-131
-131
-123
-121
-127
-121
-117
-125
-113
-111
-119
-117
-115
-113
-113
-105
-103
-103
-99
-91
-91
-85
-75
-73
-71
-65
-65
-59
-51
-41
-45
-31
-23
-19
-19
-11
-11
-27
-41
-49
-57
-75
-75
-85
-91
-91
-93
-103
-101
-99
-107
-109
-107
-103
-111
-111
-103
-111
-113
-107
-107
-107
-103
-105
-113
-107
-107
-111
-115
-105
-109
-113
-105
-107
-109
-109
-109
-115
-111
-105
-109
-117
-113
-109
-113
-111
-103
-111
-111
-105
-109
-111
-107
-109
-117
-107
-109
-111
-109
-101
-107
-101
-93
-95
-97
-97
-89
-87
-87
-79
-87
-91
-97
-93
-103
-103
-103
-105
-109
-109
-113
-109
-113
-117
-115
-119
-117
-121
-125
-115
-117
-127
-121
-115
-125
-121
-121
-123
-119
-115
-125
-123
-117
-121
-125
-119
-119
-127
-115
-97
-73
-43
-1
19
15
-15
-39
-27
19
83
143
171
153
107
49
-11
-81
-143
-175
-185
-191
-185
-165
-147
-147
-139
-137
-143
-147
-139
-139
-131
-129
-133
-127
-127
-127
-131
-125
-121
-117
-121
-113
-113
-113
-103
-99
-101
-105
-91
-91
-87
-75
-67
-69
-59
-51
-47
-45
-37
-39
-27
-19
-17
-15
-17
-15
-23
-33
-39
-57
-67
-77
-79
-101
-99
-105
-111
-113
-109
-115
-115
-111
-115
-123
-121
-113
-121
-117
-115
-115
-113
-111
-113
-121
-121
-117
-115
-123
-121
-123
-125
-119
-115
-121
-125
-117
-125
-123
-117
-115
-127
-125
-125
-125
-125
-125
-127
-131
-129
-129
-127
-125
-127
-127
-121
-127
-131
-129
-123
-125
-125
-119
-119
-115
-113
-109
-117
-115
-101
-103
-107
-101
-99
-107
-109
-105
-113
-117
-113
-111
-117
-119
-119
-129
-127
-123
-127
-125
-123
-131
-133
-131
-121
-131
-129
-127
-127
-131
-127
-125
-133
-129
-129
-133
-129
-127
-131
-129
-123
-117
-115
-103
-73
-45
-19
-11
-29
-71
-87
-53
-3
65
101
95
61
21
-43
-95
-135
-163
-181
-181
-175
-173
-161
-139
-139
-139
-133
-133
-133
-131
-131
-129
-133
-127
-127
-129
-129
-129
-125
-123
-115
-119
-113
-105
-105
-99
-91
-93
-93
-89
-79
-75
-69
-53
-49
-51
-45
-39
-33
-19
-13
-17
-15
-5
-7
-7
-3
-7
-15
-17
-23
-41
-37
-25
-41
-61
-79
-97
-103
-91
-87
-93
-97
-87
-85
-83
-79
-77
-85
-85
-79
-81
-83
-75
-75
-67
-67
-73
-83
-79
-77
-79
-81
-69
-75
-77
-83
-83
-85
-73
-77
-79
-79
-83
-81
-81
-79
-81
-75
-75
-85
-89
-89
-73
-69
-73
-85
-99
-95
-87
-81
-73
-73
-65
-77
-81
-75
-75
-73
-63
-65
-73
-75
-75
-71
-77
-71
-75
-75
-75
-75
-85
-87
-87
-87
-91
-85
-83
-81
-83
-93
-101
-91
-97
-101
-103
-95
-87
-97
-95
-89
-91
-93
-83
-87
-85
-71
-67
-53
-31
7
21
35
27
-3
-19
19
71
119
141
119
63
23
-23
-71
-115
-127
-125
-123
-99
-85
-93
-87
-85
-81
-83
-83
-81
-89
-79
-73
-75
-77
-63
-71
-69
-65
-63
-61
-53
-43
-47
-45
-39
-35
-33
-23
-17
-17
-7
-1
-15
-3
7
9
17
23
27
25
23
25
7
1
-7
-17
-23
-31
-33
-43
-45
-43
-49
-51
-57
-55
-53
-53
-57
-55
-53
-55
-53
-55
-51
-49
-45
-39
-41
-43
-41
-37
-47
-47
-35
-37
-41
-41
-35
-45
-47
-39
-47
-43
-37
-43
-43
-39
-35
-41
-41
-43
-49
-45
-41
-43
-49
-45
-47
-49
-41
-45
-47
-45
-33
-41
-45
-35
-31
-33
-33
-23
-25
-27
-17
-15
-21
-19
-19
-29
-37
-29
-37
-39
-35
-43
-39
-35
-39
-45
-45
-41
-41
-49
-39
-39
-41
-43
-43
-47
-45
-41
-43
-47
-39
-43
-47
-41
-47
-47
-47
-35
-37
-35
-21
-9
19
55
73
75
59
37
41
71
137
171
187
171
135
87
47
-3
-51
-83
-93
-89
-85
-69
-63
-59
-63
-53
-57
-59
-49
-47
-53
-55
-43
-45
-49
-39
-39
-39
-33
-29
-33
-25
-15
-19
-13
-9
-5
-15
-3
3
13
17
31
29
29
43
47
43
57
65
59
65
65
63
57
51
41
23
17
11
1
-5
-9
-15
-19
-19
-21
-13
-15
-25
-25
-21
-23
-25
-17
-21
-31
-29
-27
-21
-27
-23
-17
-13
-23
-15
-25
-23
-19
-23
-25
-21
-17
-23
-27
-17
-23
-23
-23
-23
-25
-21
-23
-29
-29
-25
-33
-31
-25
-29
-31
-25
-25
-31
-35
-27
-31
-35
-27
-27
-21
-15
-13
-19
-19
-7
-3
-11
-15
-17
-17
-25
-25
-23
-25
-23
-29
-33
-31
-31
-39
-35
-37
-41
-35
-43
-47
-45
-37
-35
-41
-37
-39
-39
-45
-39
-39
-47
-37
-45
-47
-37
-39
-39
-35
-29
-15
15
45
69
67
35
7
1
37
105
159
173
159
115
71
23
-27
-71
-99
-105
-109
-91
-71
-55
-49
-49
-47
-49
-45
-41
-41
-45
-37
-31
-33
-31
-29
-27
-23
-19
-19
-15
-13
-3
-7
3
15
19
23
37
41
49
49
63
57
67
67
71
77
83
89
83
79
71
55
43
37
19
15
13
-1
-11
-7
-15
-13
-25
-21
-25
-21
-25
-29
-31
-25
-31
-29
-27
-29
-29
-29
-25
-23
-25
-25
-29
-31
-33
-27
-33
-35
-27
-33
-33
-35
-29
-39
-35
-31
-43
-39
-35
-45
-51
-41
-45
-53
-49
-53
-51
-55
-51
-53
-57
-51
-51
-53
-47
-41
-47
-41
-39
-43
-41
-35
-37
-45
-41
-39
-49
-57
-49
-55
-61
-59
-59
-63
-65
-65
-67
-67
-61
-63
-71
-67
-63
-63
-61
-61
-67
-65
-61
-67
-63
-61
-59
-55
-53
-53
-59
-57
-45
-31
-5
25
55
65
49
13
-23
-7
41
91
129
139
109
59
19
-13
-61
-97
-109
-115
-115
-101
-91
-91
-85
-79
-79
-79
-75
-77
-77
-71
-67
-65
-61
-65
-61
-61
-53
-57
-53
-49
-39
-39
-33
-21
-21
-11
1
9
13
25
29
37
45
51
51
55
73
71
71
79
81
63
51
43
25
13
9
3
-3
-5
-5
-5
-13
-9
-17
-25
-15
-19
-19
-19
-15
-15
-13
-7
-9
-15
-5
-5
-9
-9
-5
-5
1
-1
-5
-3
-5
-3
-1
5
9
-1
-1
9
1
-7
1
5
-1
3
5
3
1
3
1
1
5
9
1
7
17
11
11
17
19
21
31
25
23
25
27
25
23
23
21
7
17
11
13
13
21
11
3
15
13
-1
9
5
5
7
11
9
13
17
15
11
19
23
21
25
29
19
15
35
41
49
81
115
137
153
145
113
99
115
155
193
245
251
223
183
153
99
57
29
7
-3
-1
9
13
23
29
29
29
39
35
27
37
39
41
47
49
43
49
55
63
57
67
71
63
71
83
83
89
93
97
97
107
115
119
133
133
133
133
149
149
153
161
165
171
179
171
173
173
177
169
167
165
163
149
145
147
135
141
135
127
131
135
137
129
133
129
129
137
137
137
129
135
139
137
137
147
143
141
139
143
139
137
145
151
143
145
149
139
153
145
149
147
155
149
149
149
159
151
159
151
155
161
155
153
155
163
157
159
161
159
157
159
161
161
161
171
165
169
165
167
171
167
167
171
167
169
163
161
165
161
159
161
153
157
155
149
145
147
149
147
149
137
149
149
147
149
147
141
155
145
143
139
137
141
141
149
141
143
149
153
159
165
173
189
217
241
249
251
235
237
241
269
313
353
365
353
321
279
231
181
145
125
115
103
113
129
131
131
135
135
133
133
137
135
135
143
133
131
131
133
129
135
133
139
141
153
153
149
163
159
161
159
163
167
173
173
173
173
177
179
185
197
199
199
197
217
213
215
225
219
207
213
207
195
177
171
173
163
163
157
153
153
153
141
133
121
119
125
133
133
125
135
133
119
117
117
125
113
121
121
115
119
123
117
111
119
115
115
117
113
105
117
119
117
121
125
119
109
109
107
99
101
111
101
107
111
109
107
109
105
97
99
101
107
101
105
107
103
103
109
103
111
111
111
109
117
115
115
113
109
103
107
97
87
93
91
83
79
85
79
73
71
79
71
65
71
71
69
67
65
61
61
69
63
65
67
61
55
63
65
63
63
69
65
67
87
109
127
145
145
125
105
103
129
169
211
243
243
217
171
131
87
49
9
-19
-15
-15
-3
19
25
27
29
25
27
23
29
27
33
35
41
31
37
45
37
41
47
43
43
57
61
59
57
61
63
69
79
81
81
87
93
93
97
99
105
111
117
115
113
127
129
129
127
131
107
99
91
83
75
59
49
37
37
39
33
27
31
25
21
21
21
13
17
15
13
17
19
11
9
11
11
11
11
15
5
11
13
13
3
5
3
-1
3
3
3
-3
3
1
-3
3
-3
-13
-9
-11
-11
-15
-9
-17
-17
-11
-13
-25
-21
-17
-17
-23
-17
-17
-15
-15
-15
-19
-13
-7
-11
-11
-7
-15
-25
-23
-27
-39
-39
-35
-43
-47
-45
-53
-59
-59
-61
-63
-63
-59
-67
-75
-63
-65
-79
-67
-67
-75
-71
-75
-73
-77
-73
-71
-67
-51
-23
5
19
7
-39
-69
-43
1
41
79
89
59
21
-13
-59
-93
-121
-135
-151
-145
-135
-131
-115
-117
-119
-115
-107
-107
-115
-109
-109
-115
-117
-113
-109
-111
-109
-113
-109
-101
-99
-99
-95
-87
-91
-89
-85
-81
-79
-77
-63
-63
-51
-45
-39
-39
-27
-21
-19
-9
1
-7
-1
-3
-15
-19
-21
-27
-45
-45
-55
-71
-75
-75
-77
-87
-83
-85
-89
-89
-91
-95
-93
-93
-95
-95
-93
-93
-99
-91
-91
-97
-97
-91
-95
-97
-87
-91
-93
-89
-85
-89
-89
-83
-91
-93
-85
-87
-91
-85
-89
-97
-87
-91
-89
-91
-85
-89
-89
-83
-77
-83
-79
-67
-73
-69
-63
-61
-69
-67
-61
-71
-73
-65
-71
-85
-73
-73
-85
-79
-87
-85
-87
-85
-89
-99
-95
-95
-97
-97
-101
-95
-99
-95
-91
-99
-93
-95
-101
-97
-91
-95
-87
-83
-71
-61
-31
-7
11
15
-7
-29
-17
3
45
77
103
77
47
19
-11
-53
-87
-113
-133
-143
-131
-125
-123
-117
-117
-111
-117
-111
-109
-113
-109
-105
-107
-103
-103
-101
-105
-97
-95
-99
-97
-97
-93
-87
-79
-89
-79
-77
-71
-77
-59
-63
-55
-51
-47
-49
-43
-31
-29
-25
-17
-13
-9
-11
-21
-27
-39
-47
-59
-69
-75
-83
-81
-89
-85
-93
-91
-89
-95
-97
-101
-99
-101
-99
-95
-103
-101
-101
-99
-99
-103
-97
-101
-97
-93
-97
-93
-97
-95
-97
-99
-101
-109
-105
-107
-107
-107
-105
-113
-115
-113
-115
-119
-117
-119
-121
-121
-113
-123
-119
-121
-113
-121
-109
-109
-115
-111
-109
-101
-103
-99
-103
-113
-107
-111
-113
-123
-119
-117
-127
-121
-129
-133
-133
-127
-133
-137
-137
-131
-141
-127
-129
-133
-133
-129
-129
-131
-131
-131
-135
-127
-131
-127
-133
-121
-103
-89
-57
-23
-1
1
-11
-23
-7
31
81
109
123
87
43
9
-27
-75
-125
-159
-181
-195
-185
-175
-173
-165
-163
-169
-167
-165
-171
-173
-169
-159
-171
-165
-161
-161
-159
-153
-153
-159
-143
-151
-153
-141
-135
-137
-133
-121
-125
-121
-109
-111
-105
-99
-95
-91
-85
-79
-71
-65
-61
-59
-67
-71
-85
-99
-109
-113
-131
-137
-135
-143
-147
-149
-147
-155
-157
-155
-161
-165
-161
-163
-165
-165
-159
-165
-169
-165
-167
-175
-163
-163
-173
-163
-167
-175
-177
-173
-177
-175
-175
-175
-185
-183
-183
-187
-181
-183
-185
-197
-183
-183
-189
-187
-179
-193
-189
-185
-191
-191
-187
-181
-187
-185
-179
-179
-187
-175
-183
-181
-177
-175
-181
-187
-187
-187
-193
-195
-193
-203
-205
-207
-215
-207
-203
-199
-211
-209
-209
-219
-213
-205
-211
-203
-201
-211
-211
-211
-207
-207
-207
-205
-203
-203
-191
-187
-167
-129
-95
-67
-53
-71
-103
-113
-85
-33
13
33
21
-17
-59
-105
-155
-203
-233
-253
-263
-249
-245
-241
-235
-235
-235
-237
-233
-239
-231
-237
-237
-237
-233
-233
-233
-227
-231
-229
-225
-215
-219
-215
-207
-201
-199
-189
-183
-179
-173
-167
-153
-149
-143
-133
-129
-121
-109
-107
-105
-91
-99
-113
-117
-125
-143
-147
-141
-161
-159
-163
-161
-173
-167
-165
-169
-167
-161
-165
-171
-163
-167
-167
-159
-157
-163
-161
-153
-153
-159
-149
-157
-159
-151
-149
-157
-153
-153
-159
-159
-147
-155
-161
-149
-159
-157
-151
-147
-153
-151
-147
-151
-151
-145
-145
-151
-151
-147
-147
-149
-139
-141
-145
-137
-139
-139
-135
-133
-141
-143
-141
-147
-153
-151
-153
-157
-159
-155
-161
-171
-167
-171
-179
-169
-169
-173
-171
-167
-171
-175
-169
-169
-175
-171
-173
-177
-171
-163
-173
-175
-159
-163
-167
-157
-155
-155
-135
-107
-75
-45
-9
-15
-37
-37
-19
13
69
97
99
69
35
1
-49
-85
-127
-159
-191
-191
-197
-195
-183
-179
-183
-183
-177
-183
-181
-169
-177
-179
-167
-173
-175
-171
-173
-175
-167
-165
-171
-171
-161
-163
-159
-157
-151
-149
-145
-137
-139
-143
-125
-115
-117
-111
-103
-109
-97
-85
-85
-75
-75
-69
-67
-63
-75
-77
-81
-89
-97
-105
-105
-113
-127
-121
-119
-127
-125
-127
-129
-129
-131
-127
-127
-129
-123
-125
-129
-133
-131
-135
-127
-125
-133
-129
-131
-137
-133
-129
-133
-135
-127
-129
-131
-131
-129
-133
-129
-127
-131
-137
-135
-131
-135
-131
-133
-137
-137
-127
-131
-133
-125
-127
-131
-133
-129
-129
-131
-125
-121
-129
-115
-113
-123
-117
-105
-111
-103
-103
-105
-105
-109
-113
-117
-115
-115
-115
-115
-115
-119
-117
-119
-123
-125
-125
-123
-125
-125
-125
-127
-127
-125
-125
-127
-125
-117
-133
-127
-121
-119
-125
-119
-121
-117
-115
-109
-113
-111
-105
-101
-93
-71
-45
-21
9
19
9
-5
1
23
63
125
153
145
111
77
29
-23
-63
-101
-137
-151
-145
-139
-137
-125
-127
-125
-115
-119
-129
-115
-119
-119
-123
-111
-119
-115
-113
-113
-115
-109
-105
-109
-107
-99
-103
-97
-85
-87
-89
-79
-67
-75
-63
-53
-57
-51
-43
-37
-29
-19
-15
-13
-1
3
-7
-13
-21
-35
-43
-51
-55
-67
-71
-71
-77
-83
-79
-81
-87
-81
-87
-85
-85
-81
-91
-91
-87
-83
-85
-89
-87
-83
-85
-81
-89
-85
-85
-85
-87
-79
-83
-91
-85
-81
-83
-89
-83
-79
-83
-83
-85
-85
-81
-81
-81
-83
-79
-81
-83
-77
-75
-75
-79
-69
-73
-77
-67
-67
-73
-61
-57
-57
-55
-53
-59
-51
-45
-47
-49
-51
-57
-63
-63
-63
-63
-65
-57
-63
-73
-67
-69
-71
-71
-69
-75
-79
-71
-75
-77
-77
-73
-77
-77
-71
-75
-77
-75
-77
-77
-67
-77
-73
-71
-65
-61
-51
-37
-21
5
43
59
53
41
33
39
81
141
183
191
183
143
97
53
-1
-49
-87
-101
-113
-109
-97
-89
-91
-81
-73
-79
-73
-67
-77
-75
-71
-73
-71
-71
-63
-69
-71
-65
-65
-61
-61
-57
-55
-57
-49
-55
-49
-35
-39
-31
-19
-19
-15
-11
-3
-1
5
7
13
21
23
31
31
35
39
31
21
17
11
-7
-11
-19
-21
-31
-33
-37
-43
-41
-41
-49
-41
-39
-45
-43
-41
-45
-47
-47
-49
-51
-49
-47
-47
-49
-45
-47
-53
-45
-47
-53
-47
-43
-49
-51
-53
-53
-53
-51
-49
-45
-53
-51
-51
-55
-45
-51
-53
-45
-47
-55
-47
-47
-55
-49
-37
-45
-49
-49
-37
-41
-45
-37
-33
-37
-23
-27
-29
-27
-27
-27
-33
-33
-43
-39
-35
-45
-51
-53
-47
-53
-59
-53
-53
-57
-59
-57
-65
-61
-61
-67
-69
-61
-65
-67
-63
-65
-61
-57
-53
-59
-43
-31
-11
17
45
49
25
15
21
53
103
141
151
139
97
51
1
-39
-89
-129
-133
-137
-127
-119
-109
-97
-105
-97
-97
-93
-93
-89
-99
-95
-89
-87
-91
-79
-87
-87
-83
-79
-81
-75
-71
-67
-67
-65
-61
-61
-57
-39
-43
-37
-29
-23
-23
-11
-5
1
3
7
7
13
23
11
9
3
1
-11
-25
-27
-39
-51
-53
-59
-61
-65
-65
-73
-69
-73
-73
-73
-73
-77
-81
-75
-75
-79
-77
-69
-81
-73
-77
-75
-85
-79
-83
-81
-77
-79
-81
-81
-77
-85
-93
-79
-85
-87
-81
-79
-85
-89
-85
-85
-87
-87
-87
-91
-83
-79
-87
-91
-89
-87
-93
-83
-81
-81
-81
-71
-79
-75
-75
-67
-67
-69
-65
-65
-75
-71
-73
-77
-71
-77
-83
-75
-79
-81
-85
-83
-89
-91
-87
-83
-91
-81
-85
-85
-91
-83
-85
-89
-81
-79
-87
-79
-75
-83
-77
-69
-77
-77
-65
-63
-63
-45
-27
-15
5
31
25
1
-9
-23
-7
37
67
85
83
67
33
-1
-19
-53
-79
-95
-95
-97
-85
-75
-71
-73
-71
-71
-73
-67
-63
-69
-63
-59
-59
-57
-55
-51
-57
-47
-43
-45
-43
-39
-33
-33
-29
-23
-23
-13
-13
-15
-5
3
1
7
17
21
23
31
37
37
43
49
43
35
27
19
5
1
-7
-13
-23
-21
-29
-33
-35
-39
-43
-41
-45
-47
-45
-47
-49
-47
-39
-45
-47
-43
-45
-51
-47
-39
-39
-39
-41
-39
-43
-39
-41
-39
-45
-39
-45
-45
-35
-43
-45
-47
-37
-45
-53
-41
-47
-53
-49
-53
-53
-55
-45
-55
-53
-49
-53
-51
-47
-59
-59
-51
-45
-43
-41
-35
-41
-39
-33
-29
-31
-25
-25
-33
-39
-41
-43
-47
-47
-45
-53
-45
-49
-59
-63
-47
-43
-51
-47
-55
-53
-57
-47
-51
-57
-49
-53
-49
-47
-53
-51
-47
-49
-45
-41
-37
-31
-15
5
37
65
75
67
45
45
79
127
165
179
159
121
75
33
-27
-73
-91
-97
-91
-79
-71
-77
-65
-71
-73
-69
-63
-65
-69
-57
-63
-67
-65
-57
-65
-65
-53
-49
-51
-49
-53
-41
-35
-33
-33
-29
-17
-13
-13
-3
-1
3
3
13
23
27
37
35
37
37
37
29
19
17
3
-7
-7
-19
-23
-21
-31
-37
-31
-31
-39
-43
-33
-33
-37
-35
-35
-37
-37
-31
-33
-31
-31
-29
-35
-27
-29
-31
-29
-27
-33
-33
-31
-29
-33
-27
-25
-27
-23
-23
-29
-27
-21
-25
-29
-29
-25
-31
-25
-23
-31
-29
-25
-29
-33
-31
-33
-29
-39
-33
-31
-33
-21
-23
-25
-21
-19
-23
-13
-1
-11
-19
-11
-9
-21
-19
-21
-23
-31
-27
-29
-31
-33
-31
-31
-29
-31
-37
-41
-29
-39
-41
-31
-33
-41
-33
-31
-35
-39
-29
-29
-33
-29
-27
-27
-17
-15
-5
9
39
75
89
93
73
61
89
153
189
227
221
167
117
57
5
-57
-77
-87
-81
-69
-61
-61
-61
-53
-51
-55
-51
-45
-49
-49
-41
-47
-43
-33
-35
-33
-31
-29
-29
-19
-19
-17
-13
-1
-1
-3
15
25
25
29
43
49
47
55
61
59
71
67
69
61
49
39
21
13
11
-13
-15
-15
-17
-27
-19
-25
-33
-33
-37
-37
-31
-33
-33
-37
-35
-37
-39
-33
-39
-47
-41
-41
-41
-39
-37
-49
-47
-37
-43
-51
-45
-45
-49
-49
-49
-55
-55
-49
-47
-51
-47
-53
-57
-53
-53
-51
-59
-51
-53
-55
-49
-53
-61
-57
-49
-49
-51
-47
-45
-49
-35
-43
-47
-45
-47
-49
-53
-55
-57
-59
-59
-65
-71
-71
-65
-71
-71
-65
-59
-67
-65
-69
-65
-65
-63
-69
-73
-65
-67
-65
-61
-59
-61
-63
-53
-53
-55
-49
-49
-49
-41
-25
-27
-1
27
47
67
71
49
27
11
31
57
107
143
153
129
97
63
19
-19
-49
-61
-75
-71
-69
-63
-45
-45
-47
-41
-39
-41
-37
-35
-41
-41
-37
-31
-39
-29
-27
-21
-21
-17
-19
-19
-5
-7
1
1
7
13
11
19
27
27
31
41
39
51
55
57
63
67
71
79
87
85
79
79
77
63
53
45
31
21
19
11
-1
1
1
-9
-11
-7
-17
-17
-13
-15
-23
-19
-13
-17
-23
-17
-17
-21
-23
-19
-21
-17
-15
-17
-15
-15
-17
-25
-9
-23
-19
-17
-13
-19
-21
-19
-17
-21
-23
-19
-17
-21
-19
-21
-21
-13
-15
-27
-23
-17
-21
-15
-11
-21
-17
-7
-9
-9
-3
-3
-11
-9
1
1
-3
1
-7
-13
-5
-11
-21
-15
-17
-17
-23
-19
-19
-21
-29
-21
-29
-25
-25
-33
-29
-23
-27
-33
-25
-25
-25
-21
-17
-27
-23
-21
-19
-19
-17
-11
-15
-9
-5
1
17
35
63
95
117
117
99
95
99
129
181
231
245
235
191
153
103
57
7
-43
-67
-69
-67
-65
-53
-41
-43
-39
-41
-47
-39
-39
-43
-37
-37
-37
-41
-35
-35
-29
-35
-27
-29
-31
-21
-15
-19
-19
-9
-9
-7
-1
7
7
13
17
21
31
37
39
45
53
57
61
69
77
77
75
81
69
55
55
45
29
31
19
9
7
5
-1
-9
-5
-11
-15
-9
-13
-9
-15
-9
-21
-15
-13
-9
-21
-17
-9
-25
-17
-13
-19
-21
-13
-21
-23
-19
-23
-21
-17
-19
-19
-19
-19
-17
-19
-17
-15
-17
-15
-13
-13
-21
-13
-17
-19
-23
-19
-19
-19
-9
-13
-21
-15
-19
-17
-11
-11
-3
-3
3
-7
-5
-1
-5
-1
3
-1
-17
-13
-9
-15
-25
-19
-19
-25
-25
-19
-23
-27
-21
-23
-25
-21
-29
-41
-37
-43
-43
-43
-37
-41
-39
-31
-31
-33
-29
-37
-35
-27
-21
-19
-9
3
25
17
11
23
49
81
93
81
61
75
117
169
217
237
229
171
141
87
37
-13
-49
-79
-79
-77
-79
-67
-57
-47
-55
-43
-43
-43
-39
-39
-39
-43
-35
-43
-43
-35
-37
-33
-23
-15
-21
-21
-13
-11
-7
-1
3
5
11
19
23
25
41
35
35
51
63
59
63
73
77
79
87
87
77
83
81
77
61
53
37
29
23
13
9
13
5
5
3
-7
-9
-15
-9
-15
-21
-21
-7
-19
-21
-13
-15
-11
-11
-23
-17
-11
-13
-19
-15
-11
-23
-15
-9
-7
-17
-9
-11
-17
-23
-11
-21
-17
-15
-13
-11
-1
-17
-23
-19
-17
-17
-21
-15
-17
-19
-13
-13
-15
-21
-21
-15
-13
-3
-7
-5
1
-1
-3
-7
-3
-15
-23
-11
-23
-19
-11
-17
-29
-27
-31
-31
-27
-23
-25
-25
-25
-19
-35
-41
-31
-31
-27
-19
-23
-31
-17
-15
-23
-15
-17
-15
-11
-9
-7
3
29
63
83
103
109
95
59
59
87
145
187
231
217
173
131
75
19
-19
-55
-79
-79
-71
-61
-45
-37
-39
-37
-33
-31
-21
-19
-23
-29
-29
-29
-47
-43
-33
-37
-35
-27
-15
-15
-13
-5
-15
-5
1
3
13
21
27
29
35
43
45
49
63
55
59
75
83
83
87
85
87
81
73
67
49
37
31
15
11
13
3
1
-1
-7
-7
-7
-17
-35
-39
-23
-19
-27
-31
-35
-39
-27
-27
-31
-33
-31
-33
-33
-25
-31
-35
-35
-39
-39
-31
-25
-31
-35
-31
-27
-33
-27
-29
-29
-27
-23
-29
-31
-29
-27
-35
-31
-29
-33
-35
-31
-37
-37
-25
-31
-31
-23
-25
-23
-23
-15
-15
-11
-9
-9
-9
-3
-5
-9
-13
-5
-11
-17
-19
-17
-25
-19
-23
-27
-31
-29
-45
-45
-41
-43
-45
-39
-39
-47
-47
-37
-41
-37
-39
-35
-37
-31
-29
-31
-23
-29
-43
-51
-27
-5
13
43
61
59
31
1
-7
29
93
143
165
145
93
37
-23
-75
-105
-107
-99
-91
-83
-65
-57
-59
-57
-55
-49
-49
-51
-63
-67
-53
-43
-53
-51
-41
-41
-37
-37
-31
-27
-23
-17
-15
-15
-5
-1
5
17
19
23
31
45
51
55
55
59
63
69
69
65
65
59
41
31
27
21
7
1
-5
-11
-17
-11
-11
-21
-19
-27
-25
-25
-25
-35
-29
-27
-41
-29
-19
-29
-39
-31
-27
-35
-27
-33
-33
-31
-31
-31
-35
-31
-29
-33
-35
-27
-29
-35
-27
-31
-41
-31
-37
-35
-31
-25
-33
-33
-31
-35
-35
-29
-35
-31
-27
-19
-21
-27
-21
-21
-15
-13
-5
-17
-23
-17
-21
-29
-21
-29
-25
-31
-31
-41
-39
-39
-45
-41
-37
-43
-51
-47
-47
-47
-51
-45
-43
-47
-47
-45
-43
-39
-41
-49
-39
-35
-31
-29
-13
3
25
61
83
81
57
19
11
49
105
147
153
133
93
43
3
-27
-61
-79
-77
-69
-59
-49
-41
-41
-47
-37
-37
-43
-35
-37
-35
-31
-31
-33
-29
-25
-23
-23
-19
-9
-13
5
3
3
7
25
19
25
35
37
45
51
65
61
73
81
79
79
87
87
83
73
69
57
47
35
23
15
11
7
-7
1
-7
-9
-5
-7
-5
-19
-17
-11
-11
-13
-19
-15
-13
-15
-15
-9
-11
-11
-13
-7
-11
-11
-9
-1
-9
-11
-3
-3
-9
-11
-13
-21
-15
-19
-23
-21
-15
-15
-17
-15
-13
-19
-23
-27
-23
-27
-19
-25
-27
-25
-17
-15
-15
-3
-9
-19
-5
-3
-7
-7
-5
-9
-9
-13
-15
-19
-19
-19
-25
-25
-27
-27
-27
-25
-31
-31
-25
-31
-37
-31
-37
-35
-37
-29
-33
-39
-37
-27
-37
-31
-25
-29
-21
-11
1
19
51
73
69
61
49
49
79
131
177
171
159
121
81
29
-19
-63
-83
-85
-77
-67
-53
-53
-55
-47
-47
-51
-49
-41
-45
-47
-45
-37
-47
-43
-33
-39
-35
-27
-23
-21
-13
-15
-9
-5
5
7
5
21
19
19
29
39
39
45
51
51
49
61
51
41
37
31
5
-1
-11
-13
-21
-21
-29
-35
-33
-31
-41
-37
-37
-43
-41
-37
-39
-43
-37
-43
-47
-41
-33
-45
-41
-41
-43
-47
-47
-35
-41
-39
-39
-43
-47
-39
-41
-43
-43
-45
-45
-47
-41
-49
-51
-47
-51
-53
-49
-49
-53
-47
-47
-53
-59
-51
-55
-55
-49
-51
-49
-53
-43
-49
-41
-41
-41
-47
-37
-31
-31
-31
-31
-39
-39
-37
-41
-49
-45
-43
-55
