-87
-85
-87
-89
-87
-89
-87
-89
-87
-91
-91
-89
-91
-89
-87
-89
-89
-81
-77
-75
-75
-69
-65
-67
-67
-73
-75
-77
-79
-87
-89
-91
-93
-95
-91
-93
-95
-95
-93
-95
-95
-97
-101
-99
-99
-101
-101
-103
-105
-101
-95
-85
-81
-83
-83
-83
-81
-79
-83
-83
-79
-71
-73
-77
-73
-77
-83
-89
-101
-117
-111
-99
-93
-87
-77
-63
-25
27
43
25
5
-17
-45
-61
-63
-69
-63
-63
-63
-65
-65
-59
-59
-63
-65
-61
-59
-59
-55
-55
-49
-45
-45
-51
-49
-51
-47
-47
-47
-47
-45
-43
-39
-33
-31
-31
-31
-31
-31
-31
-29
-27
-27
-27
-31
-37
-31
-21
-19
-21
-33
-35
-37
-39
-41
-47
-45
-43
-39
-51
-67
-65
-67
-67
-59
-65
-73
-71
-69
-69
-77
-79
-73
-67
-65
-73
-77
-83
-83
-85
-79
-73
-81
-83
-81
-91
-95
-89
-83
-85
-93
-91
-87
-79
-75
-75
-77
-81
-75
-77
-77
-71
-77
-77
-79
-75
-63
-61
-69
-75
-71
-69
-71
-79
-87
-95
-93
-83
-85
-95
-93
-85
-85
-93
-99
-97
-95
-103
-105
-97
-91
-89
-89
-99
-91
-95
-85
-73
-65
-79
-89
-85
-85
-85
-79
-81
-83
-97
-113
-117
-107
-89
-75
-67
-43
1
35
39
15
-19
-47
-61
-69
-71
-73
-67
-61
-61
-71
-73
-65
-75
-75
-65
-57
-65
-69
-65
-65
-61
-61
-67
-69
-59
-53
-61
-61
-53
-49
-55
-57
-53
-45
-41
-45
-51
-49
-41
-37
-41
-41
-41
-37
-35
-33
-49
-49
-47
-45
-47
-51
-57
-57
-57
-61
-67
-63
-65
-71
-75
-73
-77
-81
-81
-83
-85
-85
-87
-85
-83
-81
-87
-97
-97
-91
-93
-95
-97
-97
-99
-99
-99
-103
-97
-95
-95
-99
-101
-99
-101
-101
-103
-99
-93
-91
-95
-95
-91
-89
-87
-79
-79
-83
-81
-81
-81
-87
-91
-95
-97
-93
-95
-99
-99
-101
-105
-107
-105
-105
-107
-105
-107
-113
-109
-107
-111
-103
-99
-99
-93
-89
-89
-89
-85
-85
-85
-83
-79
-79
-77
-77
-77
-85
-85
-93
-103
-101
-91
-79
-69
-61
-49
-17
23
35
21
-1
-31
-59
-69
-67
-69
-73
-73
-73
-71
-65
-63
-67
-67
-63
-63
-61
-59
-57
-57
-53
-53
-55
-55
-51
-51
-53
-47
-45
-45
-43
-39
-43
-39
-35
-31
-33
-31
-29
-33
-33
-31
-33
-29
-29
-27
-29
-29
-31
-33
-31
-31
-37
-43
-43
-47
-49
-51
-53
-57
-59
-61
-65
-65
-67
-71
-71
-67
-69
-73
-69
-69
-75
-79
-81
-81
-81
-79
-81
-89
-85
-85
-89
-87
-91
-93
-89
-89
-93
-95
-89
-89
-93
-95
-91
-91
-89
-87
-91
-87
-79
-77
-79
-77
-75
-73
-75
-71
-77
-81
-79
-83
-89
-93
-93
-95
-91
-89
-95
-99
-99
-97
-97
-97
-101
-103
-99
-97
-101
-109
-101
-89
-87
-85
-85
-85
-79
-77
-83
-83
-79
-77
-71
-71
-75
-83
-85
-89
-99
-105
-99
-93
-83
-75
-67
-41
11
27
17
-9
-39
-53
-63
-65
-67
-69
-69
-65
-65
-67
-65
-63
-65
-57
-51
-55
-53
-53
-53
-55
-55
-49
-49
-45
-47
-45
-41
-41
-39
-39
-33
-27
-29
-27
-27
-19
-17
-15
-19
-19
-15
-13
-15
-17
-17
-19
-17
-17
-21
-25
-27
-33
-39
-43
-45
-53
-51
-53
-53
-57
-59
-57
-59
-57
-59
-65
-67
-67
-65
-67
-67
-69
-71
-73
-75
-73
-73
-73
-79
-79
-79
-81
-81
-71
-73
-77
-79
-73
-77
-77
-75
-75
-71
-61
-59
-61
-59
-51
-53
-55
-55
-61
-69
-65
-67
-69
-73
-79
-77
-77
-73
-77
-79
-75
-75
-83
-89
-93
-89
-85
-93
-99
-101
-93
-89
-87
-85
-83
-81
-85
-85
-81
-75
-71
-73
-75
-75
-73
-77
-81
-89
-99
-97
-85
-79
-71
-65
-55
-35
15
45
39
17
-19
-49
-57
-61
-63
-67
-65
-63
-65
-67
-59
-59
-63
-63
-63
-65
-65
-57
-59
-57
-57
-59
-59
-53
-53
-53
-47
-43
-47
-47
-47
-49
-41
-39
-33
-31
-35
-33
-33
-33
-29
-25
-25
-23
-19
-23
-33
-37
-37
-37
-37
-43
-47
-41
-41
-49
-49
-53
-57
-57
-61
-67
-67
-63
-67
-73
-73
-67
-67
-71
-71
-71
-75
-75
-79
-81
-83
-81
-81
-81
-77
-83
-85
-81
-81
-85
-87
-83
-83
-81
-77
-83
-85
-89
-91
-89
-91
-91
-89
-87
-85
-81
-81
-81
-77
-71
-69
-67
-67
-67
-65
-69
-81
-85
-87
-89
-93
-93
-93
-95
-89
-93
-95
-97
-103
-103
-103
-99
-105
-105
-99
-101
-107
-101
-93
-89
-91
-87
-87
-87
-87
-83
-79
-83
-85
-85
-81
-81
-89
-95
-103
-109
-109
-103
-97
-89
-83
-73
-45
9
29
17
-11
-43
-67
-75
-77
-71
-77
-75
-75
-77
-75
-71
-71
-71
-71
-71
-75
-71
-61
-65
-65
-61
-61
-59
-53
-49
-51
-53
-47
-45
-47
-47
-47
-43
-39
-39
-39
-33
-27
-29
-31
-31
-29
-29
-29
-31
-33
-33
-35
-39
-39
-39
-45
-53
-55
-53
-53
-57
-57
-63
-67
-69
-71
-73
-73
-75
-79
-79
-79
-77
-77
-79
-81
-87
-83
-81
-83
-85
-87
-91
-93
-91
-99
-95
-95
-93
-93
-95
-97
-101
-97
-93
-95
-97
-97
-93
-89
-89
-91
-91
-85
-77
-79
-81
-79
-79
-81
-77
-75
-77
-79
-83
-87
-89
-91
-97
-99
-97
-97
-99
-95
-99
-103
-109
-107
-105
-107
-107
-109
-111
-111
-109
-109
-115
-113
-115
-113
-105
-101
-103
-99
-93
-89
-93
-93
-99
-99
-93
-89
-91
-91
-91
-95
-101
-107
-117
-115
-107
-99
-85
-79
-75
-69
-37
7
31
21
-3
-41
-65
-77
-81
-85
-87
-83
-77
-79
-79
-83
-85
-83
-79
-79
-85
-85
-79
-75
-75
-75
-71
-71
-69
-71
-71
-67
-67
-69
-63
-61
-63
-55
-49
-49
-51
-51
-47
-47
-45
-43
-49
-49
-41
-39
-37
-37
-41
-43
-41
-45
-47
-49
-53
-55
-53
-55
-61
-69
-65
-65
-69
-73
-73
-81
-79
-75
-75
-77
-81
-83
-81
-83
-83
-85
-85
-81
-77
-79
-81
-83
-87
-85
-85
-87
-89
-91
-91
-91
-91
-87
-95
-97
-93
-89
-89
-91
-91
-93
-89
-87
-91
-89
-87
-87
-83
-79
-77
-77
-67
-65
-67
-69
-71
-71
-73
-75
-79
-87
-93
-89
-91
-87
-89
-95
-97
-93
-95
-97
-97
-101
-103
-99
-101
-103
-99
-107
-107
-107
-101
-91
-87
-83
-83
-83
-81
-79
-83
-83
-81
-77
-77
-73
-71
-75
-77
-79
-91
-101
-105
-93
-81
-69
-63
-61
-47
-7
39
51
41
15
-27
-49
-61
-65
-65
-63
-59
-65
-67
-69
-67
-63
-59
-59
-59
-57
-57
-61
-59
-57
-55
-51
-49
-51
-53
-51
-47
-43
-43
-47
-51
-49
-47
-41
-37
-33
-33
-33
-29
-25
-31
-31
-25
-19
-19
-23
-27
-21
-19
-19
-21
-23
-27
-27
-27
-27
-37
-41
-41
-41
-45
-49
-53
-57
-59
-61
-59
-63
-63
-65
-69
-69
-69
-69
-71
-67
-71
-73
-75
-77
-77
-73
-75
-79
-79
-81
-83
-87
-89
-85
-87
-87
-87
-89
-87
-83
-87
-89
-85
-77
-79
-79
-75
-73
-67
-63
-61
-65
-63
-61
-65
-73
-79
-83
-83
-85
-87
-93
-93
-91
-91
-91
-97
-99
-95
-97
-99
-103
-105
-103
-103
-99
-97
-95
-91
-89
-91
-89
-83
-83
-83
-81
-83
-83
-81
-81
-85
-87
-93
-101
-107
-103
-97
-91
-83
-67
-57
-27
23
27
1
-31
-51
-63
-63
-67
-69
-71
-69
-67
-69
-65
-65
-69
-65
-59
-61
-61
-61
-59
-59
-55
-55
-57
-53
-47
-45
-43
-43
-45
-43
-41
-37
-39
-33
-31
-31
-31
-25
-27
-27
-25
-23
-23
-25
-21
-23
-23
-23
-23
-27
-27
-27
-31
-33
-35
-37
-37
-45
-49
-53
-49
-51
-55
-57
-57
-57
-61
-61
-65
-69
-67
-65
-67
-65
-67
-71
-71
-69
-73
-75
-79
-79
-77
-77
-77
-81
-81
-81
-85
-85
-83
-85
-89
-81
-83
-85
-83
-81
-83
-87
-89
-87
-83
-77
-73
-71
-69
-63
-65
-65
-67
-67
-71
-73
-75
-85
-85
-83
-89
-91
-91
-93
-95
-95
-91
-93
-95
-97
-99
-99
-95
-99
-103
-99
-93
-93
-87
-85
-83
-83
-85
-83
-83
-77
-75
-81
-81
-79
-81
-89
-97
-105
-101
-89
-83
-69
-63
-53
-21
17
29
9
-23
-47
-59
-73
-75
-75
-75
-73
-69
-73
-69
-65
-67
-65
-59
-55
-59
-63
-65
-65
-63
-55
-55
-55
-55
-49
-47
-47
-47
-47
-41
-31
-33
-35
-35
-33
-31
-33
-31
-31
-29
-23
-23
-27
-27
-27
-27
-29
-29
-31
-37
-33
-33
-39
-43
-45
-47
-49
-51
-59
-65
-67
-67
-71
-67
-67
-69
-71
-73
-73
-75
-67
-69
-71
-71
-75
-77
-73
-73
-77
-81
-79
-79
-81
-81
-83
-87
-85
-83
-85
-87
-85
-81
-79
-81
-83
-87
-83
-77
-77
-75
-71
-63
-59
-57
-59
-67
-65
-59
-59
-69
-79
-81
-79
-83
-87
-91
-87
-83
-83
-89
-93
-95
-97
-97
-97
-99
-97
-95
-103
-105
-95
-89
-85
-83
-85
-91
-89
-83
-79
-75
-69
-75
-77
-75
-67
-79
-81
-89
-95
-97
-83
-71
-61
-53
-43
-5
43
47
25
-3
-39
-57
-63
-63
-67
-69
-67
-63
-59
-59
-61
-57
-61
-61
-59
-63
-59
-55
-53
-55
-57
-55
-53
-49
-51
-47
-43
-39
-41
-43
-41
-41
-35
-31
-29
-35
-31
-25
-23
-27
-27
-23
-19
-21
-25
-25
-21
-23
-29
-35
-39
-39
-43
-49
-55
-59
-57
-63
-65
-63
-63
-65
-63
-67
-67
-63
-63
-65
-69
-71
-69
-69
-75
-77
-71
-75
-75
-77
-83
-81
-83
-85
-87
-85
-81
-83
-87
-89
-85
-85
-85
-79
-65
-61
-63
-61
-59
-55
-61
-67
-67
-65
-69
-79
-79
-81
-79
-79
-87
-89
-85
-85
-87
-87
-93
-97
-95
-95
-97
-95
-85
-83
-83
-81
-81
-83
-81
-79
-81
-75
-65
-69
-73
-73
-77
-87
-95
-101
-97
-83
-71
-65
-61
-27
27
41
19
-7
-41
-59
-63
-63
-57
-55
-53
-57
-57
-59
-57
-57
-57
-51
-47
-45
-47
-47
-45
-41
-43
-45
-47
-43
-39
-29
-33
-35
-31
-21
-25
-25
-21
-19
-19
-19
-23
-19
-17
-19
-15
-9
-11
-15
-15
-11
-13
-17
-15
-15
-29
-35
-37
-43
-43
-43
-45
-49
-49
-49
-53
-59
-65
-61
-57
-57
-61
-65
-63
-65
-69
-63
-63
-69
-67
-67
-69
-75
-77
-77
-77
-75
-75
-83
-77
-73
-73
-75
-77
-79
-79
-79
-79
-79
-75
-71
-65
-63
-57
-59
-61
-57
-57
-65
-67
-69
-71
-73
-73
-71
-73
-73
-79
-85
-83
-89
-89
-89
-89
-89
-95
-95
-93
-95
-93
-89
-85
-83
-79
-77
-83
-81
-73
-73
-71
-69
-73
-77
-73
-77
-83
-91
-99
-101
-89
-71
-61
-61
-51
-13
31
39
31
-3
-37
-59
-69
-69
-61
-61
-67
-67
-61
-65
-65
-63
-63
-63
-61
-57
-63
-57
-51
-55
-57
-55
-55
-51
-41
-39
-47
-49
-45
-43
-39
-37
-37
-35
-29
-27
-33
-31
-25
-29
-25
-29
-29
-27
-23
-23
-31
-31
-31
-33
-39
-41
-45
-47
-47
-51
-57
-61
-59
-61
-67
-69
-71
-69
-67
-69
-71
-69
-71
-75
-73
-71
-73
-69
-71
-73
-69
-73
-73
-83
-87
-91
-89
-91
-89
-91
-79
-59
-55
-77
-99
-105
-91
-69
-71
-77
-79
-77
-73
-63
-51
-45
-47
-51
-57
-57
-65
-73
-75
-83
-95
-105
-121
-117
-111
-107
-103
-97
-95
-95
-89
-85
-81
-83
-89
-103
-111
-109
-109
-113
-107
-97
-89
-79
-79
-81
-83
-81
-73
-59
-49
-55
-71
-93
-113
-121
-111
-95
-97
-101
-97
-93
-65
-3
27
23
7
-9
-15
-29
-41
-43
-49
-47
-47
-57
-71
-83
-87
-85
-75
-67
-65
-65
-61
-59
-51
-45
-49
-57
-53
-49
-49
-45
-41
-43
-43
-37
-33
-37
-35
-27
-23
-25
-27
-27
-25
-25
-27
-27
-21
-17
-15
-15
-17
-15
-15
-19
-17
-17
-15
-15
-15
-13
-19
-23
-25
-27
-29
-29
-27
-33
-41
-43
-45
-43
-37
-35
-43
-47
-41
-43
-47
-45
-43
-49
-49
-47
-51
-51
-49
-51
-49
-43
-45
-47
-49
-51
-55
-57
-53
-53
-55
-57
-55
-55
-55
-53
-53
-53
-51
-57
-53
-47
-47
-51
-53
-53
-57
-53
-43
-47
-45
-41
-37
-37
-35
-29
-29
-33
-31
-27
-33
-33
-35
-41
-45
-43
-47
-51
-47
-49
-55
-53
-53
-53
-57
-59
-61
-63
-59
-57
-61
-61
-61
-61
-65
-63
-61
-61
-51
-47
-51
-45
-45
-45
-43
-41
-41
-43
-37
-37
-37
-37
-37
-41
-41
-43
-49
-57
-63
-65
-63
-51
-43
-35
-33
-29
-19
13
49
63
55
43
17
-9
-23
-37
-43
-41
-41
-45
-45
-45
-45
-47
-45
-43
-43
-47
-41
-43
-45
-43
-45
-47
-45
-43
-45
-45
-41
-39
-37
-37
-37
-39
-39
-41
-41
-35
-29
-33
-35
-29
-25
-27
-23
-21
-19
-25
-23
-21
-19
-13
-11
-15
-17
-15
-15
-11
-9
-15
-15
-11
-11
-11
-15
-19
-25
-25
-25
-29
-33
-37
-37
-39
-39
-37
-39
-39
-43
-45
-45
-43
-49
-51
-45
-37
-37
-37
-23
1
25
31
-1
-41
-63
-65
-75
-89
-99
-109
-111
-109
-101
-95
-87
-77
-75
-75
-71
-69
-65
-57
-57
-59
-59
-59
-63
-71
-77
-89
-93
-87
-81
-75
-67
-61
-63
-65
-59
-57
-51
-51
-55
-63
-63
-63
-63
-67
-71
-75
-75
-75
-77
-83
-83
-79
-81
-83
-85
-87
-83
-81
-81
-83
-87
-89
-91
-87
-79
-77
-77
-75
-71
-73
-69
-65
-69
-69
-63
-65
-65
-67
-71
-69
-65
-67
-73
-81
-87
-87
-85
-75
-67
-67
-63
-41
-5
33
45
35
29
3
-19
-33
-39
-45
-51
-47
-41
-49
-49
-45
-41
-45
-39
-39
-43
-39
-35
-35
-35
-33
-29
-27
-25
-25
-27
-25
-23
-25
-25
-21
-21
-17
-15
-11
-13
-11
-5
-7
-5
-1
-5
-5
-1
3
-3
-1
1
3
1
-1
-9
-13
-11
-5
-7
-13
-15
-17
-15
-17
-19
-23
-31
-35
-35
-31
-29
-35
-35
-41
-41
-37
-35
-43
-43
-45
-39
-43
-47
-49
-45
-45
-49
-53
-51
-49
-47
-49
-53
-55
-61
-61
-55
-59
-59
-59
-51
-49
-51
-51
-57
-63
-57
-53
-51
-45
-41
-43
-37
-31
-35
-35
-31
-33
-35
-39
-45
-53
-57
-59
-59
-61
-57
-61
-59
-61
-63
-67
-67
-67
-69
-67
-67
-67
-69
-65
-61
-61
-55
-43
-27
-31
-35
-29
-15
-1
-15
-43
-53
-47
-43
-45
-55
-71
-81
-89
-83
-73
-61
-41
-15
5
11
11
31
49
25
-15
-43
-57
-65
-63
-57
-53
-49
-47
-45
-49
-43
-45
-49
-47
-35
-35
-41
-39
-35
-35
-35
-29
-27
-23
-21
-23
-23
-23
-23
-25
-17
-13
-11
-11
-9
-3
-5
-3
-3
-1
5
7
3
1
-3
-1
1
3
5
3
3
-1
-7
-13
-11
-17
-23
-29
-27
-33
-31
-33
-37
-39
-41
-41
-37
-39
-41
-47
-43
-39
-41
-39
-41
-37
-37
-41
-43
-49
-45
-41
-45
-45
-43
-39
-43
-45
-41
-43
-43
-41
-45
-37
-33
-35
-39
-39
-31
-35
-39
-43
-35
-17
11
47
65
109
159
191
225
245
267
297
317
319
303
253
179
95
15
-41
-67
-91
-103
-107
-111
-99
-101
-103
-103
-101
-103
-99
-101
-103
-99
-103
-105
-105
-103
-105
-113
-115
-119
-119
-125
-127
-127
-125
-121
-119
-125
-121
-121
-123
-125
-119
-115
-109
-105
-105
-107
-103
-97
-93
-87
-83
-79
-79
-79
-79
-73
-63
-59
-61
-65
-63
-53
-53
-51
-51
-53
-55
-57
-57
-59
-53
-51
-53
-55
-57
-59
-51
-49
-55
-57
-53
-51
-53
-51
-51
-55
-51
-55
-57
-55
-49
-47
-49
-53
-49
-49
-45
-45
-47
-47
-45
-45
-47
-49
-51
-45
-43
-43
-51
-51
-47
-45
-47
-47
-45
-45
-45
-45
-47
-45
-41
-41
-45
-49
-51
-49
-45
-45
-49
-43
-39
-35
-33
-31
-27
-25
-27
-25
-27
-23
-29
-41
-53
-51
-51
-59
-55
-57
-61
-59
-59
-63
-65
-63
-69
-67
-71
-65
-65
-69
-67
-65
-57
-57
-61
-67
-67
-55
-55
-55
-49
-47
-47
-51
-57
-71
-79
-75
-69
-59
-53
-43
-13
43
51
35
3
-27
-45
-51
-49
-43
-45
-43
-39
-43
-39
-41
-39
-31
-25
-29
-31
-29
-27
-27
-25
-23
-21
-17
-17
-15
-15
-9
-7
-7
-7
-5
-7
-7
-3
-3
-3
1
3
3
1
5
5
3
3
-1
3
3
-1
-5
-7
-7
-9
-15
-19
-25
-29
-29
-31
-35
-35
-39
-41
-41
-39
-41
-43
-41
-41
-47
-45
-47
-51
-53
-55
-57
-59
-55
-57
-65
-65
-65
-69
-69
-75
-81
-91
-95
-99
-85
-57
-27
-7
25
67
121
165
199
227
247
273
291
301
297
261
197
117
33
-29
-73
-101
-123
-133
-139
-143
-143
-139
-139
-145
-153
-153
-153
-157
-161
-165
-167
-161
-153
-155
-159
-161
-157
-159
-159
-167
-169
-169
-163
-163
-167
-167
-167
-167
-167
-167
-171
-169
-163
-161
-163
-161
-157
-157
-149
-145
-147
-145
-137
-129
-131
-127
-121
-115
-109
-109
-111
-107
-101
-99
-99
-95
-91
-91
-89
-91
-93
-91
-83
-87
-85
-85
-85
-83
-81
-85
-85
-83
-77
-81
-83
-77
-75
-77
-77
-75
-69
-73
-75
-77
-77
-67
-71
-77
-75
-69
-73
-75
-73
-75
-75
-71
-73
-77
-73
-71
-73
-73
-71
-71
-71
-69
-69
-77
-77
-75
-73
-71
-71
-75
-75
-71
-69
-73
-71
-71
-73
-71
-69
-71
-71
-71
-71
-69
-65
-63
-67
-73
-67
-65
-63
-61
-59
-55
-47
-45
-47
-47
-47
-49
-51
-49
-57
-65
-67
-71
-75
-73
-79
-81
-81
-75
-71
-75
-79
-83
-83
-83
-83
-87
-83
-79
-79
-77
-69
-69
-69
-69
-67
-69
-69
-63
-63
-61
-59
-63
-63
-59
-59
-71
-81
-83
-77
-67
-59
-53
-51
-39
-7
35
51
45
23
-9
-29
-43
-49
-47
-41
-45
-43
-39
-39
-39
-39
-41
-41
-35
-33
-33
-35
-33
-27
-25
-21
-25
-29
-27
-25
-27
-21
-19
-21
-23
-17
-11
-13
-11
-13
-15
-15
-9
-5
-7
-7
-5
-5
-3
-3
-11
-5
3
-1
3
-1
-3
-7
1
1
-5
-7
-11
-13
-11
-9
-15
-21
-21
-19
-27
-31
-39
-41
-41
-37
-39
-43
-43
-45
-49
-47
-47
-49
-51
-47
-43
-45
-47
-53
-61
-63
-59
-61
-61
-59
-61
-67
-61
-63
-65
-65
-65
-73
-79
-81
-85
-83
-67
-43
-23
-1
29
59
113
155
187
213
243
265
285
297
305
303
281
241
171
91
11
-45
-81
-109
-123
-131
-137
-135
-137
-137
-135
-137
-141
-139
-141
-147
-145
-143
-141
-139
-141
-145
-147
-147
-143
-147
-147
-151
-155
-159
-151
-153
-159
-155
-155
-159
-157
-155
-157
-159
-157
-155
-155
-153
-151
-153
-149
-145
-145
-145
-135
-135
-133
-127
-121
-123
-117
-111
-111
-107
-99
-99
-97
-95
-93
-91
-85
-79
-83
-79
-77
-75
-81
-81
-77
-79
-77
-71
-73
-73
-71
-73
-73
-71
-69
-71
-73
-67
-65
-67
-65
-65
-69
-69
-71
-75
-71
-67
-71
-71
-71
-69
-67
-63
-63
-67
-67
-63
-67
-69
-63
-63
-63
-61
-63
-65
-67
-65
-65
-65
-67
-65
-61
-55
-61
-63
-61
-61
-61
-59
-61
-63
-63
-59
-63
-65
-65
-61
-63
-67
-59
-63
-67
-63
-61
-67
-67
-59
-59
-61
-55
-61
-63
-65
-63
-63
-63
-63
-63
-63
-59
-53
-53
-53
-49
-51
-49
-45
-49
-53
-57
-61
-69
-69
-71
-73
-71
-75
-81
-85
-79
-79
-79
-77
-81
-87
-89
-83
-87
-87
-87
-91
-91
-85
-81
-81
-81
-81
-83
-77
-75
-77
-79
-77
-79
-77
-77
-79
-79
-79
-81
-89
-91
-87
-81
-71
-63
-59
-59
-39
-5
21
17
-1
-33
-55
-63
-67
-73
-73
-69
-69
-69
-65
-65
-65
-63
-63
-65
-65
-63
-63
-61
-59
-57
-59
-53
-53
-55
-59
-53
-49
-51
-47
-47
-47
-43
-39
-43
-41
-37
-37
-39
-37
-33
-33
-33
-33
-37
-37
-33
-35
-35
-33
-35
-39
-37
-35
-39
-41
-45
-49
-53
-55
-63
-63
-63
-63
-67
-67
-69
-71
-71
-71
-73
-75
-73
-71
-77
-77
-75
-75
-79
-75
-77
-79
-75
-77
-83
-85
-83
-81
-81
-83
-87
-89
-91
-95
-101
-101
-93
-73
-39
-9
15
47
101
151
185
219
243
269
285
291
281
253
197
123
47
-11
-59
-99
-127
-141
-145
-151
-153
-155
-155
-153
-155
-161
-163
-163
-161
-157
-155
-153
-157
-157
-155
-161
-165
-157
-159
-163
-163
-165
-167
-167
-165
-169
-171
-167
-165
-167
-167
-167
-165
-161
-159
-153
-153
-153
-151
-145
-141
-143
-145
-135
-129
-129
-125
-119
-115
-109
-101
-103
-105
-103
-95
-91
-89
-91
-87
-85
-83
-87
-89
-83
-79
-79
-81
-85
-83
-81
-81
-83
-83
-75
-75
-77
-77
-75
-77
-77
-73
-77
-81
-77
-71
-71
-67
-71
-77
-79
-75
-73
-77
-79
-79
-75
-77
-79
-81
-79
-73
-75
-83
-79
-77
-77
-79
-81
-81
-81
-79
-77
-79
-77
-75
-75
-79
-77
-81
-79
-77
-77
-81
-79
-79
-79
-75
-81
-85
-81
-79
-75
-77
-75
-73
-71
-73
-69
-65
-65
-59
-59
-61
-63
-61
-67
-67
-73
-79
-79
-79
-79
-85
-83
-81
-83
-87
-87
-89
-91
-91
-93
-93
-93
-95
-95
-89
-83
-81
-79
-77
-81
-79
-77
-77
-79
-77
-75
-73
-71
-71
-77
-89
-93
-89
-83
-71
-61
-51
-27
25
35
15
-15
-39
-53
-59
-59
-59
-57
-55
-55
-55
-53
-53
-53
-53
-47
-49
-51
-49
-51
-51
-47
-45
-43
-41
-41
-41
-37
-31
-29
-31
-29
-31
-25
-23
-21
-27
-25
-19
-21
-19
-21
-21
-17
-13
-15
-15
-19
-17
-19
-21
-21
-23
-31
-29
-31
-33
-39
-41
-47
-49
-45
-47
-49
-49
-51
-51
-53
-53
-55
-57
-53
-57
-63
-61
-59
-59
-57
-59
-63
-63
-59
-59
-63
-65
-63
-67
-75
-87
-87
-79
-61
-33
-7
17
47
89
143
189
229
267
303
323
329
331
295
225
139
47
-29
-73
-103
-123
-131
-133
-133
-137
-139
-139
-137
-137
-139
-139
-143
-139
-135
-135
-141
-141
-145
-141
-143
-149
-153
-151
-149
-155
-157
-155
-151
-153
-153
-155
-153
-149
-147
-147
-143
-143
-143
-141
-137
-133
-129
-121
-119
-115
-107
-101
-99
-99
-91
-89
-87
-87
-83
-83
-81
-79
-83
-81
-79
-79
-77
-73
-73
-73
-75
-79
-77
-77
-71
-71
-75
-71
-71
-75
-77
-77
-77
-73
-71
-71
-77
-71
-71
-73
-75
-71
-75
-75
-77
-77
-77
-73
-73
-77
-79
-75
-77
-85
-79
-71
-75
-73
-73
-77
-79
-73
-73
-77
-81
-75
-73
-73
-75
-83
-79
-75
-77
-77
-75
-71
-73
-75
-81
-77
-77
-77
-77
-75
-73
-71
-63
-63
-59
-61
-61
-61
-69
-69
-67
-65
-69
-73
-79
-77
-75
-83
-93
-93
-85
-85
-91
-91
-93
-89
-89
-89
-93
-91
-87
-85
-83
-81
-79
-77
-77
-77
-75
-73
-71
-71
-75
-77
-77
-83
-89
-93
-93
-83
-69
-61
-51
-35
1
29
27
7
-23
-41
-51
-61
-67
-63
-63
-61
-59
-61
-65
-61
-57
-59
-57
-55
-55
-49
-41
-43
-49
-47
-41
-43
-47
-43
-37
-35
-33
-31
-39
-37
-29
-27
-27
-25
-25
-27
-25
-21
-27
-25
-19
-19
-17
-15
-15
-15
-13
-13
-19
-17
-15
-17
-15
-21
-23
-27
-27
-27
-31
-37
-37
-37
-39
-43
-49
-51
-45
-43
-49
-49
-47
-45
-47
-49
-49
-51
-49
-51
-55
-55
-53
-53
-57
-57
-61
-63
-57
-57
-61
-65
-75
-83
-77
-71
-59
-29
5
29
59
115
171
215
253
283
311
331
337
323
281
219
125
33
-21
-63
-95
-113
-113
-113
-115
-117
-121
-123
-121
-125
-129
-135
-129
-131
-127
-125
-121
-127
-127
-125
-131
-135
-131
-131
-135
-137
-137
-137
-135
-133
-135
-135
-131
-131
-133
-135
-131
-129
-125
-119
-119
-117
-111
-107
-107
-101
-101
-95
-93
-85
-81
-77
-71
-69
-69
-65
-63
-63
-57
-59
-59
-57
-51
-53
-53
-51
-47
-51
-53
-47
-45
-41
-41
-43
-41
-39
-41
-41
-37
-41
-41
-37
-35
-33
-41
-39
-41
-45
-43
-41
-41
-37
-33
-41
-45
-47
-39
-35
-33
-35
-37
-37
-39
-43
-43
-39
-35
-37
-39
-41
-43
-37
-33
-35
-41
-41
-39
-35
-31
-35
-31
-31
-29
-31
-37
-33
-33
-39
-33
-31
-33
-35
-29
-29
-27
-23
-25
-25
-21
-17
-17
-17
-17
-13
-13
-9
-9
-13
-11
-15
-19
-23
-25
-29
-29
-31
-29
-33
-35
-31
-31
-31
-35
-39
-43
-43
-43
-45
-41
-39
-41
-41
-37
-37
-37
-31
-27
-27
-27
-29
-25
-23
-23
-23
-21
-21
-23
-29
-33
-41
-47
-39
-27
-19
-13
-5
11
43
79
83
69
45
19
-1
-15
-13
-13
-17
-17
-15
-19
-19
-17
-17
-19
-17
-17
-17
-15
-15
-17
-15
-11
-11
-13
-13
-13
-15
-11
-13
-13
-5
1
-3
-3
-1
-3
-3
3
7
1
3
5
3
5
3
1
-1
3
3
1
1
5
3
3
3
-3
-13
-11
-11
-19
-21
-19
-23
-21
-25
-27
-37
-37
-41
-41
-39
-41
-43
-45
-45
-47
-53
-51
-51
-49
-53
-59
-63
-61
-61
-63
-63
-63
-67
-67
-67
-67
-69
-67
-73
-85
-95
-95
-85
-77
-51
-19
9
37
73
119
159
199
233
261
293
317
327
325
293
235
159
79
7
-47
-81
-111
-129
-131
-137
-139
-135
-137
-137
-141
-139
-145
-145
-145
-149
-151
-149
-145
-141
-139
-139
-143
-151
-147
-149
-153
-157
-155
-157
-157
-159
-163
-165
-161
-159
-161
-165
-163
-161
-159
-159
-155
-153
-153
-149
-147
-143
-139
-137
-135
-129
-125
-121
-121
-119
-117
-111
-97
-95
-93
-93
-89
-87
-83
-83
-87
-85
-79
-83
-81
-81
-83
-77
-71
-71
-73
-73
-71
-71
-73
-73
-75
-75
-69
-63
-65
-65
-65
-67
-67
-61
-59
-63
-61
-59
-59
-59
-55
-59
-55
-51
-55
-57
-57
-53
-55
-51
-51
-53
-59
-49
-43
-45
-51
-49
-53
-53
-51
-53
-49
-47
-41
-41
-37
-39
-41
-39
-31
-37
-39
-35
-35
-35
-33
-37
-41
-39
-31
-35
-37
-33
-29
-27
-27
-25
-27
-29
-25
-27
-27
-21
-19
-17
-15
-9
-9
-11
-9
-5
-3
-9
-11
-11
-15
-15
-17
-27
-31
-29
-29
-29
-29
-29
-33
-35
-33
-37
-37
-37
-35
-35
-37
-37
-39
-33
-29
-17
-17
-17
-15
-11
-11
-11
-13
-13
-7
-5
-11
-15
-21
-23
-17
-7
1
11
21
37
81
111
107
85
45
25
7
7
9
1
3
5
3
5
13
13
7
13
15
19
17
17
15
21
25
27
23
25
33
33
29
29
31
33
33
33
31
31
33
35
37
35
31
33
39
39
37
37
33
35
35
33
29
25
25
25
25
23
19
15
15
15
11
9
3
-1
-5
-3
-9
-13
-15
-15
-19
-23
-19
-21
-23
-23
-25
-27
-27
-25
-25
-29
-31
-35
-33
-31
-33
-39
-39
-37
-39
-41
-37
-39
-45
-39
-41
-47
-55
-63
-67
-63
-51
-29
1
33
63
109
153
191
225
259
283
307
321
331
307
251
179
87
-3
-55
-93
-119
-131
-131
-135
-135
-135
-135
-139
-139
-143
-147
-147
-133
-135
-141
-145
-145
-141
-145
-145
-147
-153
-149
-151
-157
-157
-155
-155
-161
-161
-155
-157
-153
-157
-155
-151
-149
-149
-147
-141
-137
-133
-129
-127
-123
-119
-115
-111
-107
-101
-101
-97
-95
-91
-91
-85
-85
-89
-87
-81
-79
-83
-83
-79
-79
-73
-75
-75
-73
-73
-75
-75
-71
-71
-71
-69
-73
