-93
-91
-89
-87
-85
-85
-83
-79
-79
-81
-87
-89
-89
-87
-87
-91
-89
-93
-91
-91
-91
-87
-91
-95
-95
-93
-91
-93
-93
-95
-97
-99
-99
-95
-95
-93
-97
-99
-97
-95
-93
-91
-91
-93
-93
-95
-95
-91
-83
-79
-79
-79
-79
-77
-77
-79
-81
-87
-89
-89
-89
-89
-95
-99
-99
-99
-99
-97
-97
-93
-93
-93
-91
-87
-79
-65
-47
-27
-3
19
25
27
31
15
-43
-105
-135
-137
-125
-113
-107
-105
-109
-109
-107
-107
-109
-111
-107
-109
-105
-105
-105
-107
-111
-113
-111
-107
-105
-105
-111
-113
-113
-111
-109
-107
-109
-109
-111
-111
-111
-107
-105
-103
-101
-99
-97
-93
-89
-87
-85
-81
-77
-73
-71
-71
-71
-73
-73
-73
-75
-75
-75
-77
-77
-79
-77
-77
-79
-77
-79
-81
-83
-85
-81
-83
-85
-85
-85
-85
-85
-83
-85
-87
-91
-93
-95
-91
-89
-89
-89
-93
-93
-89
-87
-83
-77
-77
-77
-77
-75
-73
-73
-73
-75
-71
-69
-69
-65
-59
-53
-45
-29
-9
15
35
45
39
45
49
35
-13
-69
-103
-113
-103
-91
-85
-81
-83
-87
-87
-83
-79
-77
-79
-81
-85
-87
-85
-83
-83
-83
-87
-87
-87
-85
-85
-85
-87
-89
-87
-89
-87
-85
-89
-89
-91
-91
-87
-89
-83
-87
-85
-85
-79
-79
-73
-69
-69
-67
-67
-65
-59
-57
-57
-59
-63
-65
-67
-63
-61
-61
-63
-65
-69
-69
-71
-69
-73
-75
-77
-79
-75
-75
-77
-79
-85
-81
-79
-77
-77
-77
-81
-83
-83
-79
-83
-81
-83
-83
-85
-83
-83
-81
-81
-81
-79
-81
-79
-77
-77
-77
-75
-75
-75
-73
-71
-69
-69
-71
-71
-71
-63
-57
-55
-53
-55
-57
-57
-57
-61
-69
-71
-75
-79
-79
-79
-81
-85
-85
-87
-87
-81
-79
-77
-75
-73
-59
-41
-23
-5
17
37
45
45
49
53
53
25
-19
-59
-87
-97
-97
-97
-99
-101
-99
-99
-95
-97
-97
-97
-99
-99
-97
-95
-95
-97
-97
-99
-97
-97
-95
-95
-95
-97
-99
-99
-97
-101
-103
-105
-103
-101
-101
-101
-99
-105
-107
-109
-109
-107
-103
-103
-107
-105
-103
-101
-99
-95
-97
-95
-95
-91
-85
-85
-79
-81
-81
-81
-83
-77
-79
-81
-83
-85
-83
-83
-81
-83
-81
-79
-79
-79
-81
-81
-79
-81
-83
-87
-87
-85
-85
-83
-89
-91
-89
-85
-81
-81
-83
-83
-83
-83
-79
-75
-75
-73
-73
-69
-65
-63
-63
-65
-71
-73
-75
-79
-79
-81
-87
-93
-95
-93
-91
-89
-89
-89
-93
-93
-91
-85
-83
-79
-67
-55
-37
-17
5
21
25
25
31
25
-15
-77
-123
-135
-127
-109
-99
-99
-101
-97
-99
-101
-99
-97
-95
-95
-97
-97
-99
-95
-99
-93
-97
-99
-103
-103
-101
-99
-103
-105
-105
-107
-105
-105
-101
-99
-103
-105
-105
-105
-103
-97
-99
-99
-101
-97
-93
-85
-81
-79
-79
-79
-77
-77
-75
-77
-79
-77
-79
-81
-81
-79
-79
-79
-85
-87
-85
-85
-81
-79
-81
-83
-81
-81
-81
-83
-83
-83
-81
-83
-79
-83
-83
-81
-85
-85
-81
-81
-79
-79
-77
-79
-79
-75
-75
-73
-75
-73
-69
-67
-63
-61
-63
-65
-69
-73
-77
-75
-75
-81
-83
-87
-87
-83
-79
-81
-73
-67
-57
-45
-31
-5
29
63
105
127
123
93
49
21
7
-5
-27
-55
-75
-81
-89
-93
-97
-97
-97
-97
-97
-97
-101
-103
-105
-103
-103
-105
-109
-113
-113
-111
-111
-115
-121
-121
-123
-127
-127
-127
-131
-135
-139
-139
-143
-141
-141
-139
-139
-139
-137
-133
-129
-125
-121
-117
-111
-103
-95
-91
-85
-85
-85
-83
-83
-79
-75
-75
-77
-79
-79
-75
-77
-79
-79
-79
-83
-83
-81
-81
-81
-87
-85
-83
-85
-85
-87
-87
-87
-85
-85
-81
-81
-79
-83
-77
-79
-77
-77
-75
-71
-67
-63
-63
-61
-61
-59
-63
-69
-71
-71
-73
-77
-79
-83
-87
-89
-87
-83
-81
-81
-79
-79
-77
-79
-71
-65
-51
-35
-15
3
25
35
39
33
31
21
-13
-53
-91
-107
-109
-105
-101
-95
-89
-87
-89
-93
-93
-91
-89
-89
-91
-93
-95
-97
-93
-91
-91
-89
-93
-95
-97
-95
-93
-95
-99
-97
-97
-97
-95
-95
-93
-97
-97
-97
-95
-93
-91
-89
-89
-87
-85
-81
-77
-73
-71
-69
-71
-67
-67
-65
-65
-69
-71
-71
-73
-73
-73
-75
-77
-81
-81
-79
-77
-77
-79
-79
-83
-85
-81
-81
-83
-83
-87
-87
-87
-85
-85
-87
-89
-89
-87
-85
-81
-83
-87
-85
-83
-81
-77
-73
-71
-65
-63
-55
-47
-37
-21
-3
17
43
77
109
127
117
91
49
7
-31
-59
-77
-89
-97
-103
-105
-105
-103
-105
-107
-111
-115
-115
-117
-115
-115
-119
-121
-125
-125
-121
-121
-123
-125
-129
-133
-133
-135
-141
-143
-145
-149
-151
-153
-151
-157
-159
-163
-165
-165
-163
-161
-157
-157
-155
-153
-147
-143
-139
-131
-127
-121
-115
-107
-103
-99
-99
-97
-97
-93
-91
-91
-93
-91
-93
-93
-87
-85
-89
-89
-93
-93
-93
-95
-93
-93
-99
-99
-99
-99
-95
-95
-99
-99
-103
-103
-101
-99
-101
-105
-105
-105
-103
-101
-97
-95
-95
-97
-95
-95
-95
-95
-97
-95
-95
-91
-89
-83
-81
-77
-73
-61
-43
-23
3
23
29
29
33
19
-35
-93
-123
-127
-115
-105
-95
-91
-91
-93
-93
-91
-89
-87
-87
-87
-91
-93
-93
-91
-91
-89
-93
-93
-93
-93
-93
-89
-91
-95
-95
-97
-97
-95
-95
-91
-95
-93
-95
-91
-91
-89
-85
-83
-81
-77
-75
-71
-69
-69
-67
-63
-63
-59
-59
-57
-61
-63
-65
-63
-63
-61
-63
-65
-67
-67
-69
-67
-69
-71
-73
-73
-73
-77
-75
-77
-75
-81
-81
-79
-79
-81
-79
-83
-85
-85
-87
-81
-83
-85
-89
-87
-85
-85
-85
-83
-83
-81
-83
-81
-81
-81
-81
-83
-83
-81
-79
-77
-77
-79
-79
-77
-79
-77
-71
-67
-67
-69
-71
-67
-61
-51
-43
-31
-15
3
31
57
95
131
155
155
139
99
55
15
-23
-59
-83
-93
-97
-99
-103
-109
-113
-113
-113
-113
-113
-117
-119
-121
-123
-125
-125
-127
-127
-129
-129
-129
-133
-133
-139
-143
-145
-147
-147
-147
-147
-151
-153
-155
-157
-153
-151
-153
-155
-153
-153
-149
-143
-139
-135
-133
-129
-121
-115
-111
-105
-105
-99
-97
-93
-89
-83
-85
-85
-85
-85
-83
-81
-79
-81
-85
-87
-87
-87
-85
-85
-89
-93
-95
-95
-93
-89
-89
-89
-91
-91
-85
-81
-81
-83
-89
-95
-91
-79
-59
-49
-39
-45
-53
-73
-101
-131
-151
-173
-191
-201
-199
-187
-171
-159
-147
-131
-119
-105
-95
-87
-81
-73
-65
-57
-55
-51
-51
-55
-55
-59
-57
-57
-59
-59
-57
-55
-51
-47
-49
-49
-53
-57
-57
-51
-45
-41
-37
-37
-35
-31
-25
-17
-9
-9
-3
-3
1
5
7
5
7
3
-1
-3
-5
-9
-15
-21
-27
-29
-31
-35
-39
-41
-47
-51
-51
-53
-49
-53
-57
-57
-57
-57
-59
-57
-59
-63
-63
-63
-57
-57
-59
-61
-63
-65
-61
-61
-59
-63
-63
-65
-67
-67
-65
-67
-67
-67
-69
-71
-69
-69
-69
-71
-73
-73
-73
-73
-71
-71
-71
-73
-75
-73
-71
-71
-69
-73
-73
-73
-71
-69
-69
-69
-71
-69
-67
-67
-65
-63
-57
-51
-43
-31
-9
13
43
73
115
149
167
161
141
109
67
35
1
-27
-47
-61
-71
-77
-83
-87
-93
-97
-103
-107
-111
-113
-113
-117
-115
-117
-125
-123
-127
-125
-127
-129
-133
-135
-137
-135
-139
-139
-145
-151
-153
-157
-157
-157
-157
-161
-167
-169
-167
-163
-163
-163
-161
-163
-159
-155
-151
-145
-141
-135
-129
-127
-117
-111
-105
-99
-97
-97
-93
-87
-89
-91
-91
-89
-91
-91
-89
-91
-91
-95
-95
-95
-93
-91
-89
-89
-93
-93
-99
-105
-109
-111
-103
-81
-57
-35
-27
-41
-81
-127
-163
-185
-203
-219
-219
-211
-195
-177
-155
-133
-119
-105
-97
-87
-73
-61
-57
-55
-59
-63
-63
-61
-57
-57
-57
-63
-63
-61
-57
-55
-53
-53
-55
-51
-49
-43
-41
-39
-39
-35
-29
-23
-15
-7
-3
1
3
5
7
9
11
7
5
1
-3
-9
-13
-15
-21
-27
-33
-39
-43
-43
-47
-49
-55
-57
-55
-55
-57
-59
-61
-63
-61
-61
-61
-59
-59
-63
-61
-63
-63
-63
-65
-65
-69
-69
-71
-65
-63
-69
-69
-73
-69
-71
-69
-71
-75
-79
-79
-79
-77
-77
-77
-79
-83
-81
-81
-77
-77
-79
-83
-83
-81
-79
-77
-79
-79
-79
-81
-83
-81
-79
-77
-77
-79
-79
-77
-75
-75
-75
-71
-65
-57
-47
-31
-11
9
41
81
115
139
147
129
93
53
23
-3
-27
-55
-79
-95
-103
-107
-109
-113
-115
-121
-121
-123
-123
-121
-121
-117
-121
-127
-129
-133
-133
-135
-137
-139
-141
-141
-145
-143
-149
-153
-153
-157
-159
-159
-161
-165
-167
-171
-171
-169
-167
-167
-167
-167
-169
-167
-165
-161
-159
-157
-149
-145
-137
-127
-125
-123
-123
-117
-115
-111
-107
-105
-103
-101
-101
-103
-101
-97
-99
-103
-105
-103
-107
-103
-105
-105
-107
-109
-109
-107
-107
-107
-105
-101
-101
-101
-97
-95
-99
-105
-111
-107
-95
-73
-61
-55
-59
-77
-105
-131
-157
-177
-201
-215
-219
-213
-197
-185
-173
-165
-153
-141
-129
-117
-113
-107
-99
-95
-85
-79
-79
-79
-77
-75
-77
-75
-75
-75
-75
-75
-73
-69
-65
-63
-61
-61
-59
-59
-53
-51
-45
-41
-39
-33
-27
-21
-15
-11
-7
-3
-1
3
3
7
11
9
9
5
3
1
-1
-5
-11
-15
-21
-27
-29
-33
-37
-45
-47
-49
-49
-51
-53
-55
-57
-59
-61
-61
-59
-61
-61
-61
-67
-63
-63
-63
-63
-65
-67
-69
-67
-67
-67
-67
-69
-73
-75
-75
-71
-71
-71
-73
-75
-77
-73
-75
-75
-75
-77
-77
-77
-73
-73
-73
-75
-77
-79
-77
-77
-73
-75
-75
-77
-73
-73
-73
-73
-75
-75
-73
-71
-67
-63
-59
-51
-41
-21
-1
27
63
103
137
157
159
135
97
63
25
-15
-49
-77
-95
-103
-109
-113
-119
-123
-125
-121
-125
-127
-129
-131
-133
-133
-133
-137
-141
-141
-143
-143
-143
-145
-149
-153
-155
-157
-159
-161
-163
-169
-173
-175
-177
-181
-181
-183
-187
-191
-191
-191
-189
-189
-191
-189
-189
-187
-183
-177
-175
-169
-163
-155
-151
-139
-137
-131
-127
-127
-125
-121
-117
-115
-115
-115
-117
-113
-113
-113
-113
-117
-117
-117
-117
-115
-115
-115
-117
-117
-113
-111
-115
-123
-131
-135
-135
-121
-97
-73
-55
-51
-71
-115
-163
-195
-217
-235
-253
-255
-245
-231
-211
-197
-183
-167
-151
-137
-121
-111
-101
-91
-89
-89
-87
-87
-89
-91
-89
-93
-93
-93
-89
-85
-83
-85
-83
-81
-75
-71
-69
-69
-67
-61
-53
-43
-35
-27
-25
-23
-17
-11
-9
-5
-5
-7
-11
-11
-15
-19
-23
-29
-33
-41
-45
-47
-51
-55
-63
-65
-67
-71
-73
-73
-77
-77
-81
-81
-81
-79
-81
-83
-83
-85
-83
-83
-81
-83
-87
-85
-89
-85
-87
-87
-87
-91
-93
-93
-93
-93
-93
-93
-97
-93
-95
-93
-95
-95
-95
-95
-95
-95
-93
-93
-95
-97
-95
-95
-93
-91
-93
-97
-97
-95
-95
-91
-91
-89
-91
-93
-87
-79
-69
-61
-51
-31
-7
25
57
99
125
129
119
93
59
25
-7
-39
-73
-101
-119
-125
-127
-129
-137
-141
-147
-149
-147
-147
-149
-151
-151
-153
-155
-157
-161
-161
-163
-165
-165
-165
-167
-169
-173
-177
-179
-179
-183
-185
-189
-191
-193
-195
-195
-197
-199
-199
-197
-197
-197
-193
-187
-185
-183
-181
-173
-167
-157
-153
-147
-145
-139
-139
-135
-131
-127
-127
-125
-125
-125
-125
-123
-123
-125
-127
-129
-129
-129
-129
-129
-131
-133
-135
-129
-125
-123
-123
-123
-123
-127
-129
-131
-131
-127
-111
-95
-85
-91
-107
-145
-183
-207
-227
-241
-253
-251
-239
-225
-207
-193
-179
-165
-153
-143
-137
-131
-121
-113
-107
-105
-105
-105
-105
-103
-99
-99
-101
-105
-103
-103
-99
-95
-95
-93
-95
-91
-91
-85
-81
-79
-73
-71
-67
-63
-57
-53
-47
-47
-41
-35
-29
-27
-29
-29
-29
-33
-31
-31
-35
-41
-49
-53
-57
-63
-63
-65
-73
-75
-79
-81
-83
-85
-87
-91
-93
-93
-93
-95
-93
-93
-95
-97
-97
-97
-95
-97
-97
-97
-97
-97
-95
-95
-97
-99
-101
-103
-99
-99
-101
-101
-103
-101
-101
-99
-99
-101
-99
-103
-103
-103
-101
-99
-99
-101
-99
-99
-99
-97
-95
-95
-95
-99
-95
-85
-77
-67
-51
-31
-1
41
83
119
121
101
63
25
-11
-47
-73
-97
-113
-119
-121
-127
-129
-131
-135
-143
-137
-139
-137
-139
-141
-143
-143
-145
-147
-151
-151
-153
-155
-157
-157
-157
-157
-161
-165
-171
-175
-177
-177
-179
-183
-185
-187
-191
-189
-189
-187
-187
-187
-183
-183
-173
-169
-163
-157
-155
-151
-143
-139
-131
-127
-123
-121
-117
-113
-109
-107
-107
-105
-103
-101
-101
-101
-101
-105
-105
-107
-105
-107
-103
-105
-107
-109
-109
-109
-107
-105
-103
-105
-101
-105
-109
-113
-113
-113
-107
-89
-67
-53
-51
-59
-75
-105
-143
-173
-193
-211
-233
-255
-263
-249
-225
-205
-195
-183
-173
-155
-137
-121
-111
-103
-99
-93
-87
-85
-81
-79
-79
-81
-81
-81
-79
-77
-79
-79
-75
-73
-71
-65
-63
-63
-61
-57
-53
-45
-41
-35
-33
-27
-19
-17
-11
-5
-1
1
1
1
-1
-5
-9
-15
-21
-27
-31
-37
-43
-49
-51
-57
-61
-63
-67
-67
-69
-71
-75
-73
-71
-71
-71
-75
-75
-75
-75
-75
-73
-75
-77
-75
-77
-79
-75
-75
-77
-79
-79
-79
-79
-77
-77
-79
-79
-81
-83
-83
-83
-83
-81
-83
-85
-83
-81
-81
-83
-83
-85
-83
-83
-79
-81
-83
-83
-83
-81
-77
-77
-73
-75
-75
-75
-75
-69
-61
-53
-43
-31
-7
21
61
109
149
167
157
129
91
53
19
-21
-53
-77
-93
-97
-103
-107
-113
-121
-123
-123
-121
-121
-123
-125
-131
-131
-131
-133
-135
-137
-143
-139
-139
-139
-143
-145
-147
-151
-153
-155
-155
-159
-165
-171
-177
-179
-179
-179
-181
-183
-185
-185
-183
-179
-175
-175
-171
-169
-163
-157
-149
-141
-137
-135
-133
-127
-119
-115
-111
-109
-111
-111
-107
-105
-101
-103
-105
-105
-105
-105
-103
-105
-107
-107
-109
-111
-111
-107
-109
-109
-107
-105
-101
-99
-107
-113
-123
-121
-103
-81
-61
-57
-63
-89
-125
-163
-189
-203
-221
-235
-241
-235
-219
-201
-191
-181
-171
-159
-143
-129
-115
-105
-93
-83
-83
-83
-79
-77
-75
-75
-75
-75
-75
-71
-73
-75
-71
-67
-65
-57
-55
-49
-49
-47
-43
-39
-33
-27
-25
-19
-17
-13
-9
-1
-1
1
-1
-3
-3
-5
-9
-13
-19
-25
-33
-39
-41
-47
-49
-55
-61
-63
-65
-65
-63
-67
-69
-71
-73
-75
-71
-69
-71
-73
-75
-75
-75
-71
-71
-71
-73
-73
-73
-71
-73
-75
-77
-79
-79
-77
-77
-77
-79
-81
-83
-81
-81
-83
-83
-83
-85
-85
-83
-81
-81
-83
-83
-85
-85
-83
-81
-79
-77
-71
-65
-59
-47
-31
-15
3
37
65
99
123
127
111
79
41
1
-33
-61
-81
-95
-101
-109
-113
-117
-121
-123
-125
-127
-127
-127
-127
-129
-133
-137
-139
-143
-143
-141
-139
-143
-145
-151
-153
-155
-157
-159
-167
-171
-171
-173
-175
-175
-179
-181
-183
-181
-177
-175
-173
-171
-171
-167
-159
-147
-139
-135
-131
-127
-123
-117
-111
-107
-105
-103
-103
-101
-99
-99
-97
-97
-97
-99
-97
-97
-97
-99
-101
-101
-101
-101
-99
-101
-103
-105
-103
-99
-95
-97
-101
-113
-115
-111
-93
-73
-59
-61
-77
-107
-141
-179
-199
-215
-227
-237
-243
-229
-213
-197
-185
-177
-167
-155
-143
-131
-123
-111
-107
-101
-91
-85
-75
-73
-75
-73
-69
-67
-69
-67
-69
-71
-65
-61
-57
-49
-47
-43
-41
-39
-33
-27
-21
-17
-15
-9
-7
-1
7
7
9
9
9
13
13
11
7
3
-3
-7
-13
-15
-17
-27
-33
-41
-51
-53
-53
-57
-61
-65
-67
-69
-69
-67
-67
-67
-69
-69
-69
-65
-63
-67
-65
-69
-67
-67
-63
-65
-65
-67
-65
-65
-63
-63
-63
-63
-65
-67
-67
-67
-67
-67
-67
-71
-71
-73
-73
-73
-75
-75
-75
-77
-77
-77
-77
-77
-77
-79
-79
-77
-75
-75
-77
-73
-73
-65
-57
-43
-31
-13
7
37
75
109
131
147
143
125
97
63
37
-1
-37
-67
-87
-95
-97
-101
-105
-113
-115
-119
-117
-113
-115
-117
-123
-125
-127
-127
-125
-127
-129
-133
-131
-133
-137
-135
-141
-145
-149
-151
-155
-155
-157
-163
-167
-169
-169
-169
-169
-169
-171
-173
-169
-167
-163
-161
-157
-153
-149
-141
-137
-129
-123
-115
-113
-109
-105
-99
-95
-93
-91
-89
-89
-89
-85
-83
-83
-87
-87
-87
-87
-83
-83
-85
-87
-89
-89
-89
-91
-89
-89
-89
-89
-85
-81
-83
-89
-99
-107
-103
-95
-73
-51
-45
-53
-75
-113
-153
-175
-193
-203
-219
-225
-215
-201
-189
-179
-167
-157
-143
-129
-115
-103
-93
-89
-81
-75
-71
-67
-63
-63
-61
-63
-61
-61
-57
-57
-59
-57
-57
-53
-47
-43
-39
-39
-37
-31
-27
-19
-17
-9
-11
-5
-1
5
9
13
15
15
17
19
19
17
15
5
1
-3
-9
-13
-17
-21
-27
-31
-37
-43
-45
-49
-53
-53
-57
-59
-57
-59
-61
-61
-61
-59
-57
-57
-57
-57
-59
-59
-57
-55
-57
-55
-55
-57
-57
-57
-53
-55
-57
-59
-61
-59
-59
-57
-59
-59
-61
-63
-63
-61
-61
-63
-65
-67
-65
-65
-63
-63
-63
-65
-67
-67
-61
-57
-51
-45
-33
-21
1
29
59
95
121
131
121
97
59
19
-11
-41
-61
-75
-81
-87
-91
-93
-101
-107
-105
-103
-103
-103
-107
-111
-111
-109
-109
-111
-113
-117
-119
-119
-121
-117
-119
-123
-127
-129
-129
-131
-135
-139
-143
-151
-149
-155
-153
-157
-159
-159
-161
-161
-157
-155
-155
-155
-153
-147
-143
-137
-133
-125
-123
-117
-113
-103
-99
-91
-91
-91
-87
-85
-83
-81
-81
-81
-81
-81
-79
-77
-79
-77
-79
-83
-81
-79
-79
-83
-83
-83
-81
-79
-73
-71
-73
-81
-91
-93
-83
-65
-47
-39
-45
-63
-95
-129
-159
-177
-199
-211
-219
-213
-195
-177
-161
-153
-137
-125
-109
-99
-91
-85
-77
-71
-69
-63
-59
-57
-57
-59
-57
-57
-53
-51
-51
-51
-47
-43
-39
-33
-31
-27
-25
-23
-19
-13
-5
1
5
9
13
21
27
31
31
31
29
29
27
21
15
7
1
-7
-15
-17
-21
-27
-33
-41
-45
-45
-47
-49
-53
-55
-57
-59
-57
-57
-57
-57
-57
-57
-57
-59
-57
-61
-59
-59
-61
-59
-57
-59
-59
-59
-59
-61
-61
-53
-57
-59
-59
-61
-63
-61
-59
-63
-63
-61
-63
-61
-61
-61
-61
-61
-63
-63
-55
-51
-39
-31
-21
-3
23
55
93
125
151
149
129
93
49
11
-37
-69
-89
-97
-99
-101
-103
-113
-117
-121
-121
-117
-115
-117
-119
-123
-127
-127
-129
-129
-129
-131
-133
-137
-135
-137
-143
-145
-149
-155
-157
-159
-159
-161
-165
-169
-169
-169
-165
-159
-157
-153
-149
-143
-133
-123
-119
-111
-109
-103
-97
-91
-89
-87
-85
-87
-85
-83
-83
-83
-83
-85
-83
-85
-83
-85
-87
-87
-87
-87
-87
-85
-85
-85
-89
-87
-85
-81
-75
-73
-81
-91
-93
-87
-69
-45
-31
-29
-43
-61
-103
-135
-161
-179
-199
-215
-221
-211
-193
-181
-171
-161
-153
-143
-129
-113
-105
-99
-93
-87
-79
-73
-67
-67
-65
-65
-63
-63
-65
-63
-67
-67
-67
-63
-59
-53
-51
-51
-49
-45
-43
-37
-33
-31
-25
-23
-17
-11
-5
1
5
7
9
11
13
15
15
13
9
5
3
-1
-3
-15
-17
-27
-33
-39
-39
-45
-51
-57
-63
-63
-65
-63
-69
-67
-71
-71
-69
-73
-71
-73
-73
-77
-77
-75
-71
-71
-75
-79
-81
-81
-77
-77
-79
-79
-79
-81
-79
-79
-81
-83
-81
-83
-81
-83
-81
-83
-81
-81
-81
-79
-75
-69
-63
-53
-41
-19
3
33
63
99
121
125
111
85
47
9
-23
-53
-77
-91
-99
-99
-107
-111
-117
-121
-125
-127
-125
-129
-135
-135
-133
-133
-135
-137
-145
-147
-149
-147
-147
-145
-149
-153
-159
-159
-161
-161
-163
-169
-173
-181
-181
-181
-177
-179
-181
-183
-183
-179
-175
-171
-169
-167
-167
-161
-155
-149
-143
-137
-131
-125
-119
-117
-111
-109
-107
-105
-103
-105
-101
-99
-101
-101
-103
-103
-103
-103
-103
-105
-107
-109
-109
-111
-109
-109
-109
-109
-107
-107
-105
-113
-121
-129
-127
-115
-97
-79
-75
-77
-93
-119
-155
-181
-197
-211
-227
-233
-229
-215
-199
-183
-173
-159
-147
-131
-117
-103
-93
-85
-79
-75
-73
-73
-73
-71
-69
-73
-73
-73
-75
-73
-71
-71
-71
-67
-63
-59
-59
-59
-59
-53
-49
-41
-33
-27
-21
-19
-13
-9
-5
-5
-5
-9
-15
-17
-19
-27
-29
-39
-45
-49
-53
-57
-61
-65
-69
-73
-75
-77
-73
-75
-77
-81
-81
-79
-79
-79
-79
-79
-77
-79
-81
-79
-77
-75
-77
-79
-79
-79
-77
-75
-77
-81
-81
-85
-85
-81
-79
-81
-83
-87
-89
-85
-85
-85
-87
-85
-89
-89
-89
-89
-87
-89
-89
-87
-87
-85
-83
-81
-75
-69
-61
-49
-31
-9
19
49
83
105
111
99
67
23
-17
-49
-71
-87
-99
-107
-111
-115
-121
-121
-123
-125
-129
-129
-133
-127
-127
-127
-129
-133
-137
-139
-139
-141
-141
-143
-145
-147
-149
-149
-149
-153
-159
-163
-165
-167
-169
-173
-175
-179
-183
-181
-177
-175
-179
-175
-173
-171
-165
-157
-151
-143
-139
-131
-125
-121
-111
-109
-105
-103
-105
-101
-99
-97
-95
-95
-93
-95
-91
-91
-93
-95
-97
-97
-99
-99
-97
-101
-101
-101
-101
-99
-97
-93
-95
-95
-101
-105
-105
-99
-83
-61
-53
-55
-69
-97
-137
-169
-193
-213
-233
-243
-237
-221
-203
-189
-177
-163
-149
-135
-127
-119
-113
-107
-97
-89
-81
-79
-79
-81
-81
-79
-77
-75
-73
-71
-67
-65
-63
-57
-55
-51
-49
-47
-43
-37
-29
-25
-21
-17
-15
-9
-5
1
1
3
3
3
1
1
-3
-7
-11
-19
-27
-29
-35
-37
-47
-53
-63
-63
-67
-69
-71
-75
-77
-77
-77
-77
-77
-77
-79
-81
-81
-79
-79
-77
-77
-79
-81
-77
-75
-75
-75
-77
-77
-77
-75
-73
-73
-75
-77
-79
-81
-79
-77
-79
-79
-83
-83
-81
-79
-81
-79
-77
-71
-67
-55
-41
-19
5
35
69
109
133
139
123
91
47
13
-21
-53
-79
-99
-109
-115
-117
-121
-125
-129
-133
-133
-135
-133
-133
-133
-133
-137
-141
-145
-147
-147
-145
-149
-151
-155
-159
-159
-163
-167
-169
-173
-179
-181
-185
-185
-187
-187
-189
-185
-183
-181
-179
-177
-175
-167
-163
-157
-151
-145
-139
-133
-129
-125
-119
-113
-109
-109
-109
-109
-111
-107
-105
-103
-105
-107
-109
-107
-105
-107
-105
-111
-111
-109
-111
-111
-109
-111
-109
-109
-103
-97
-95
-95
-101
-107
-111
-107
-97
-73
-51
-49
-55
-73
-113
-151
-183
-209
-231
-245
-241
-227
-207
-193
-181
-171
-159
-143
-131
-125
-117
-113
-105
-99
-93
-91
-93
-91
-89
-93
-91
-89
-91
-91
-89
-87
-87
-81
-77
-75
-73
-73
-71
-65
-63
-55
-51
-47
-43
-41
-35
-29
-19
-15
-11
-7
-9
-9
-9
-9
-11
-13
-19
-27
-31
-35
-41
-47
-53
-59
-63
-67
-69
-73
-77
-81
-85
-85
-83
-87
-85
-89
-89
-93
-91
-93
-93
-93
-93
-97
-97
-93
-91
-93
-93
-95
-95
-93
-93
-93
-93
-93
-95
-97
-95
-91
-93
-93
-95
-97
-95
-93
-89
-91
-93
-91
-91
-87
-79
-71
-63
-51
-31
-7
25
59
97
119
111
83
49
13
-25
-59
-87
-111
-123
-125
-127
-129
-135
-141
-145
-145
-145
-147
-145
-147
-149
-153
-155
-157
-161
-163
-163
-163
-165
-163
-165
-167
-169
-173
-177
-183
-183
-183
-185
-187
-193
-193
-195
-195
-191
-189
-191
-189
-189
-183
-177
-171
-167
-163
-157
-153
-143
-135
-131
-129
-125
-123
-123
-119
-115
-117
-119
-117
-119
-119
-117
-117
-117
-121
-121
-123
-123
-119
-121
-123
-127
-131
-129
-131
-127
-125
-127
-125
-125
-121
-119
-115
-119
-123
-127
-129
-121
-109
-91
-81
-81
-91
-107
-131
-157
-179
-197
-215
-231
-239
-241
-235
-223
-209
-199
-187
-177
-163
-153
-143
-135
-129
-123
-113
-107
-103
-103
-101
-99
-97
-97
-99
-99
-99
-99
-97
-91
-89
-87
-85
-85
-87
-83
-79
-73
-69
-65
-63
-59
-55
-47
-41
-37
-35
-29
-27
-23
-23
-21
-23
-27
-29
-33
-37
-39
-45
-55
-61
-67
-69
-75
-77
-81
-87
-89
-93
-91
-93
-91
-91
-95
-97
-97
-95
-93
-95
-97
-99
-99
-97
-97
-95
-97
-99
-99
-99
-99
-97
-97
-99
-103
-105
-103
-101
-101
-101
-103
-105
-103
-103
-101
-99
-97
-93
-85
-77
-61
-39
-9
25
59
91
113
107
77
37
-3
-41
-73
-95
-111
-117
-121
-125
-131
-135
-139
-141
-141
-141
-143
-145
-143
-145
-143
-147
-149
-153
-157
-161
-159
-159
-161
-165
-171
-173
-177
-175
-181
-185
-189
-193
-197
-197
-199
-199
-201
-201
-199
-197
-197
-193
-191
-189
-185
-179
-171
-163
-159
-153
-149
-143
-137
-131
-125
-123
-121
-121
-117
-113
-113
-111
-113
-113
-115
-111
-113
-111
-113
-111
-117
-117
-119
-117
-119
-119
-121
-121
-119
-115
-115
-111
-111
-113
-117
-123
-127
-119
-107
-89
-73
-69
-73
-89
-119
-159
-191
-213
-237
-255
-261
-251
-233
-217
-203
-189
-175
-163
-149
-135
-125
-121
-113
-105
-99
-97
-95
-95
-95
-91
-89
-91
-91
-91
-89
-85
-81
-75
-71
-69
-69
-65
-59
-49
-47
-41
-39
-31
-27
-21
-13
-9
-5
-7
-7
-9
-13
-15
-19
-25
-35
-41
-47
-51
-57
-63
-69
-75
-77
-79
-81
-83
-89
-91
-95
-93
-95
-95
-95
-95
-95
-97
-95
-91
-93
-91
-95
-93
-95
-93
-93
-93
-93
-95
-93
-93
-91
-91
-91
-93
-91
-95
-95
-93
-91
-93
-97
-97
-95
-87
-77
-71
-63
-49
-31
-3
29
61
95
115
123
117
93
61
31
-11
-49
-89
-115
-123
-127
-135
-137
-147
-153
-155
-155
-153
-153
-155
-159
-159
-161
-161
-165
-165
-173
-173
-173
-173
-175
-177
-181
-187
-193
-193
-195
-195
-199
-203
-205
-207
-207
-209
-205
-203
-203
-201
-197
-189
-179
-175
-169
-163
-157
-147
-141
-137
-135
-131
-133
-133
-131
-125
-127
-127
-127
-131
-131
-129
-127
-125
-127
-129
-133
-133
-135
-133
-133
-133
-135
-135
-131
-129
-125
-121
-121
-121
-123
-123
-125
-117
-105
-85
-73
-75
-89
-115
-153
-181
-207
-231
-251
-263
-255
-241
-225
-213
-201
-189
-175
-163
-155
-151
-143
-135
-127
-125
-123
-115
-117
-115
-113
-113
-111
-113
-115
-117
-113
-109
-105
-105
-103
-101
-97
-95
-91
-87
-85
-81
-75
-71
-63
-55
-51
-49
-47
-41
-37
-33
-29
-31
-29
-31
-33
-35
-39
-41
-45
-51
-59
-61
-65
-69
-73
-81
-89
-95
-97
-99
-103
-105
-109
-113
-117
-115
-115
-113
-115
-117
-117
-119
-115
-117
-119
-119
-119
-119
-119
-117
-115
-117
-117
-119
-117
-119
-115
-115
-113
-109
-105
-97
-89
-77
-59
-33
1
39
67
87
77
41
-7
-53
-91
-125
-141
-147
-151
-153
-159
-165
-167
-169
-173
-173
-175
-175
-175
-175
-175
-181
-185
-191
-193
-193
-193
-197
-199
-203
-207
-207
-211
-211
-217
-221
-221
-225
-227
-225
-225
-223
-221
-219
-217
-213
-207
-201
-195
-189
-183
-175
-169
-163
-159
-155
-155
-153
-149
-147
-149
-143
-147
-149
-147
-143
-139
-145
-145
-143
-147
-145
-145
-147
-147
-149
-151
-151
-149
-147
-147
-145
-147
-147
-143
-139
-137
-133
-137
-145
-149
-149
