-87
-89
-93
-95
-97
-97
-97
-95
-93
-95
-95
-99
-99
-101
-93
-93
-93
-95
-95
-93
-93
-93
-93
-91
-89
-89
-91
-87
-87
-87
-87
-89
-87
-83
-83
-83
-83
-83
-85
-83
-83
-79
-73
-71
-69
-69
-69
-67
-63
-65
-69
-75
-73
-77
-77
-79
-85
-87
-87
-87
-89
-91
-91
-93
-95
-95
-95
-91
-91
-95
-97
-99
-97
-95
-95
-93
-95
-95
-97
-93
-91
-89
-85
-85
-85
-85
-83
-81
-81
-87
-89
-91
-89
-89
-87
-89
-93
-95
-97
-99
-91
-93
-93
-95
-95
-97
-99
-105
-105
-89
-57
-7
51
91
81
7
-77
-113
-107
-97
-85
-85
-87
-95
-99
-97
-95
-93
-97
-97
-101
-99
-97
-97
-97
-97
-97
-99
-97
-95
-95
-95
-93
-95
-95
-95
-95
-91
-89
-89
-91
-93
-91
-87
-81
-81
-87
-87
-89
-85
-81
-81
-83
-81
-81
-83
-81
-73
-69
-69
-73
-73
-73
-71
-73
-75
-79
-81
-83
-87
-87
-87
-87
-89
-91
-93
-93
-93
-95
-93
-95
-97
-97
-97
-95
-95
-99
-101
-99
-99
-97
-97
-95
-95
-93
-91
-91
-85
-81
-83
-89
-93
-91
-91
-91
-91
-95
-99
-101
-99
-97
-97
-97
-97
-99
-97
-99
-101
-105
-101
-85
-47
17
67
89
37
-35
-99
-111
-95
-85
-81
-91
-99
-99
-97
-97
-99
-99
-97
-95
-101
-103
-101
-99
-97
-95
-99
-99
-95
-97
-97
-97
-93
-93
-95
-97
-95
-91
-89
-91
-95
-93
-87
-83
-83
-85
-87
-85
-83
-81
-79
-77
-81
-79
-79
-77
-71
-67
-65
-71
-75
-75
-69
-69
-73
-81
-87
-85
-85
-85
-87
-89
-93
-97
-99
-97
-95
-95
-95
-99
-101
-101
-99
-95
-99
-101
-103
-101
-101
-101
-99
-99
-103
-101
-99
-99
-95
-93
-93
-93
-95
-95
-95
-99
-103
-101
-99
-97
-99
-99
-101
-105
-107
-105
-105
-105
-105
-105
-99
-105
-113
-115
-97
-59
-1
53
83
65
-7
-81
-111
-105
-93
-91
-97
-105
-105
-105
-103
-107
-107
-107
-105
-105
-107
-107
-107
-111
-105
-103
-99
-101
-105
-109
-107
-103
-99
-95
-95
-101
-101
-101
-97
-95
-93
-95
-97
-95
-91
-89
-89
-89
-89
-89
-87
-83
-83
-83
-85
-79
-75
-73
-71
-75
-79
-83
-85
-83
-81
-85
-91
-95
-97
-101
-99
-95
-95
-97
-103
-105
-103
-101
-99
-99
-105
-109
-103
-101
-101
-105
-109
-107
-109
-107
-107
-103
-103
-101
-97
-97
-99
-97
-95
-89
-89
-93
-99
-101
-95
-93
-95
-97
-101
-101
-101
-103
-103
-105
-103
-105
-103
-101
-103
-101
-103
-109
-113
-105
-85
-45
13
67
91
53
-25
-97
-121
-111
-99
-95
-95
-99
-103
-103
-99
-101
-105
-107
-105
-103
-101
-105
-105
-101
-101
-97
-97
-97
-97
-99
-99
-95
-95
-93
-91
-95
-95
-97
-93
-89
-87
-87
-91
-87
-87
-87
-87
-85
-83
-87
-85
-85
-81
-79
-79
-79
-73
-73
-73
-71
-75
-77
-81
-87
-87
-89
-87
-87
-91
-97
-97
-97
-97
-97
-97
-99
-103
-103
-101
-101
-97
-99
-103
-103
-103
-101
-101
-101
-103
-105
-103
-97
-95
-95
-99
-93
-89
-89
-87
-87
-89
-89
-93
-97
-97
-95
-97
-99
-103
-105
-107
-103
-101
-101
-101
-107
-107
-107
-107
-111
-107
-83
-41
13
61
79
31
-53
-107
-117
-105
-95
-91
-95
-101
-103
-103
-103
-101
-101
-101
-103
-105
-105
-103
-103
-103
-99
-101
-101
-103
-97
-97
-95
-95
-99
-101
-99
-93
-91
-89
-93
-95
-97
-93
-89
-87
-89
-89
-91
-91
-89
-87
-85
-87
-87
-87
-85
-81
-75
-75
-75
-77
-77
-77
-75
-71
-75
-83
-87
-89
-87
-87
-89
-93
-95
-95
-97
-99
-97
-99
-97
-101
-101
-99
-97
-97
-101
-103
-99
-101
-101
-101
-103
-101
-103
-103
-99
-93
-93
-91
-93
-93
-93
-89
-83
-87
-89
-97
-101
-99
-95
-97
-99
-103
-105
-109
-111
-109
-109
-109
-109
-109
-109
-113
-117
-109
-89
-55
-3
49
75
49
-23
-91
-117
-109
-101
-91
-91
-95
-103
-105
-105
-107
-107
-107
-103
-107
-105
-107
-107
-103
-101
-101
-103
-105
-103
-99
-99
-97
-97
-101
-103
-99
-93
-91
-93
-95
-97
-99
-93
-91
-85
-85
-89
-93
-89
-87
-85
-85
-83
-85
-87
-89
-83
-77
-79
-81
-81
-79
-77
-75
-79
-81
-83
-87
-91
-89
-89
-93
-97
-99
-101
-99
-97
-99
-103
-103
-103
-105
-103
-101
-99
-99
-101
-105
-101
-97
-95
-99
-103
-103
-99
-95
-93
-93
-95
-93
-93
-93
-87
-83
-81
-83
-87
-91
-95
-91
-91
-95
-97
-99
-101
-103
-105
-103
-101
-101
-105
-107
-105
-105
-101
-109
-113
-97
-55
7
65
95
43
-45
-113
-133
-111
-93
-93
-97
-103
-103
-101
-99
-101
-101
-103
-101
-101
-97
-93
-97
-99
-101
-97
-95
-93
-93
-93
-91
-89
-89
-91
-93
-91
-91
-89
-85
-87
-89
-87
-87
-85
-87
-89
-89
-89
-85
-83
-85
-89
-85
-81
-81
-77
-75
-75
-77
-77
-75
-75
-81
-85
-85
-89
-89
-89
-91
-91
-95
-97
-99
-99
-99
-99
-95
-97
-97
-97
-95
-93
-93
-95
-95
-95
-97
-95
-93
-93
-95
-95
-91
-89
-87
-87
-87
-85
-87
-87
-85
-83
-85
-91
-95
-97
-93
-91
-95
-101
-103
-103
-103
-103
-101
-101
-99
-103
-103
-109
-113
-111
-97
-71
-23
39
83
79
21
-69
-119
-119
-103
-91
-89
-93
-99
-101
-103
-101
-99
-97
-95
-95
-97
-97
-95
-91
-93
-93
-93
-89
-87
-89
-87
-85
-87
-87
-89
-87
-85
-85
-87
-85
-85
-85
-87
-87
-87
-81
-83
-87
-89
-87
-83
-83
-83
-85
-85
-83
-79
-79
-77
-77
-79
-77
-73
-71
-71
-73
-79
-83
-85
-85
-83
-85
-87
-93
-93
-89
-89
-89
-89
-93
-97
-93
-89
-87
-89
-93
-95
-95
-95
-93
-95
-91
-91
-93
-91
-93
-87
-89
-83
-85
-85
-83
-81
-83
-87
-91
-93
-97
-97
-95
-95
-97
-103
-109
-107
-105
-101
-105
-105
-107
-107
-109
-117
-113
-93
-71
-33
23
67
63
3
-67
-111
-109
-97
-91
-93
-93
-99
-99
-99
-103
-101
-99
-95
-97
-99
-99
-97
-97
-95
-93
-95
-97
-101
-99
-93
-89
-89
-91
-95
-95
-93
-89
-89
-91
-93
-97
-97
-89
-87
-87
-91
-95
-93
-91
-91
-87
-85
-83
-85
-81
-81
-79
-77
-77
-79
-83
-85
-83
-83
-85
-91
-93
-97
-95
-95
-93
-91
-93
-95
-97
-97
-93
-91
-91
-95
-97
-99
-95
-91
-93
-95
-97
-97
-97
-95
-95
-95
-93
-93
-89
-89
-91
-89
-89
-89
-85
-89
-95
-95
-91
-91
-95
-99
-105
-103
-101
-101
-105
-109
-103
-103
-99
-101
-101
-103
-109
-117
-109
-77
-31
29
79
87
31
-49
-101
-115
-99
-91
-91
-95
-99
-99
-95
-99
-97
-97
-97
-95
-95
-95
-97
-101
-97
-95
-91
-89
-93
-93
-91
-91
-91
-91
-91
-95
-95
-93
-89
-89
-91
-89
-89
-89
-87
-91
-93
-93
-91
-93
-91
-91
-91
-87
-85
-89
-83
-79
-77
-75
-73
-73
-71
-75
-81
-81
-79
-79
-81
-85
-89
-91
-87
-83
-85
-89
-91
-91
-89
-89
-87
-91
-89
-91
-89
-89
-91
-93
-93
-93
-95
-99
-95
-93
-93
-95
-95
-97
-91
-87
-85
-87
-87
-87
-85
-85
-89
-87
-87
-87
-89
-95
-97
-95
-97
-99
-103
-103
-103
-103
-99
-97
-99
-101
-99
-99
-101
-103
-91
-67
-21
41
89
95
45
-39
-103
-117
-103
-87
-77
-79
-87
-91
-95
-91
-91
-89
-89
-93
-91
-89
-87
-91
-89
-89
-91
-91
-87
-89
-89
-89
-89
-89
-87
-85
-85
-85
-87
-89
-85
-85
-83
-85
-85
-85
-87
-85
-87
-85
-81
-83
-83
-87
-87
-83
-79
-77
-75
-71
-67
-67
-69
-63
-63
-65
-67
-67
-71
-73
-73
-75
-77
-75
-77
-79
-77
-77
-79
-81
-81
-79
-79
-79
-83
-85
-89
-85
-81
-85
-85
-87
-89
-91
-87
-87
-85
-85
-83
-83
-83
-83
-81
-79
-77
-79
-83
-85
-83
-85
-87
-91
-93
-97
-93
-95
-93
-93
-97
-95
-93
-93
-91
-93
-97
-99
-97
-73
-17
47
89
87
13
-71
-105
-97
-79
-75
-79
-85
-87
-87
-89
-89
-89
-89
-91
-91
-89
-85
-89
-91
-93
-91
-87
-85
-87
-91
-91
-91
-89
-91
-87
-83
-87
-87
-85
-85
-87
-85
-85
-83
-83
-85
-83
-83
-83
-83
-81
-81
-79
-79
-73
-69
-69
-67
-67
-67
-65
-65
-63
-65
-69
-71
-71
-71
-71
-71
-75
-79
-81
-79
-81
-79
-81
-85
-85
-85
-83
-87
-85
-87
-91
-93
-91
-89
-89
-91
-93
-95
-95
-91
-89
-85
-85
-89
-89
-85
-83
-79
-75
-77
-83
-89
-87
-87
-83
-83
-87
-93
-95
-93
-91
-93
-95
-95
-91
-93
-91
-93
-95
-97
-97
-93
-69
-25
37
85
87
25
-61
-103
-99
-83
-73
-77
-87
-93
-93
-91
-91
-91
-95
-97
-99
-95
-91
-89
-93
-95
-95
-93
-87
-89
-93
-93
-91
-89
-91
-91
-91
-91
-89
-89
-89
-87
-81
-83
-87
-89
-85
-81
-77
-77
-81
-81
-79
-77
-73
-69
-63
-61
-67
-69
-65
-65
-67
-71
-73
-77
-79
-77
-77
-73
-67
-59
-63
-89
-135
-185
-229
-257
-273
-275
-263
-241
-223
-207
-191
-179
-167
-159
-155
-149
-149
-145
-139
-123
-97
-71
-53
-51
-47
-43
-37
-33
-33
-35
-35
-33
-27
-23
-19
-13
-13
-7
-5
1
3
9
15
19
21
29
33
39
41
41
41
39
39
35
31
19
11
5
1
-9
-19
-27
-27
-33
-37
-41
-49
-49
-55
-59
-65
-69
-71
-75
-75
-79
-81
-85
-89
-85
-85
-85
-85
-89
-93
-89
-91
-91
-91
-89
-91
-95
-91
-91
-87
-87
-89
-91
-89
-89
-87
-91
-89
-89
-89
-91
-89
-85
-87
-87
-87
-85
-89
-87
-87
-85
-89
-89
-89
-91
-91
-89
-89
-85
-93
-93
-93
-89
-89
-91
-95
-91
-95
-93
-89
-89
-93
-95
-97
-97
-95
-89
-89
-93
-93
-91
-85
-83
-81
-83
-83
-81
-77
-75
-79
-81
-79
-81
-83
-83
-83
-85
-87
-87
-87
-87
-87
-87
-87
-87
-89
-91
-95
-97
-85
-45
11
63
103
91
21
-63
-103
-101
-87
-77
-73
-83
-83
-85
-87
-87
-89
-89
-85
-87
-87
-91
-93
-93
-87
-85
-83
-89
-93
-87
-85
-83
-87
-87
-87
-89
-87
-85
-83
-83
-83
-83
-87
-85
-81
-79
-77
-79
-81
-77
-73
-71
-71
-73
-71
-73
-69
-63
-61
-61
-59
-57
-55
-57
-57
-55
-49
-53
-55
-57
-59
-59
-61
-67
-71
-79
-81
-81
-83
-85
-91
-93
-91
-89
-83
-81
-83
-87
-85
-85
-83
-85
-79
-77
-77
-81
-83
-85
-87
-87
-59
-9
43
69
51
-9
-71
-87
-73
-61
-63
-67
-71
-73
-77
-79
-77
-75
-73
-73
-75
-79
-77
-73
-73
-75
-75
-73
-71
-73
-77
-75
-73
-75
-79
-79
-79
-77
-79
-81
-79
-83
-87
-87
-85
-83
-81
-83
-89
-87
-85
-81
-79
-77
-77
-77
-79
-75
-73
-75
-79
-79
-75
-71
-65
-67
-81
-117
-169
-219
-249
-269
-279
-279
-269
-257
-237
-211
-191
-175
-167
-163
-155
-147
-141
-133
-123
-101
-75
-51
-43
-37
-39
-35
-35
-33
-29
-25
-19
-15
-17
-13
-9
-3
-1
3
7
9
13
17
21
25
35
39
39
37
41
43
45
43
37
29
23
29
21
17
15
11
13
3
-25
-65
-123
-173
-201
-217
-223
-225
-219
-215
-209
-203
-187
-171
-159
-153
-147
-145
-139
-129
-113
-81
-59
-49
-45
-45
-43
-41
-35
-33
-35
-37
-35
-29
-25
-23
-23
-21
-15
-15
-11
-11
-5
-1
1
1
3
5
9
13
11
11
3
-1
-1
-5
-9
-9
-7
-13
-45
-97
-159
-207
-231
-243
-245
-243
-235
-227
-213
-199
-185
-167
-159
-151
-145
-143
-139
-125
-107
-83
-59
-39
-33
-33
-35
-31
-27
-21
-19
-19
-19
-11
-5
-1
-1
-1
1
9
15
19
25
27
29
29
31
33
35
35
35
31
29
29
25
15
7
5
1
-1
-9
-15
-25
-33
-35
-37
-29
-27
-35
-77
-139
-185
-209
-223
-233
-235
-235
-235
-229
-221
-205
-187
-173
-167
-163
-161
-155
-147
-139
-129
-111
-85
-65
-51
-49
-47
-43
-45
-41
-37
-33
-31
-25
-23
-21
-17
-15
-11
-5
1
1
5
9
15
19
21
25
25
25
23
27
23
21
17
15
7
1
-1
-7
-13
-19
-25
-31
-35
-41
-45
-41
-45
-51
-73
-117
-169
-209
-233
-247
-259
-261
-253
-245
-233
-221
-199
-183
-169
-159
-153
-151
-147
-139
-125
-101
-75
-53
-47
-45
-49
-43
-37
-35
-33
-31
-31
-25
-17
-13
-9
-9
-7
-1
5
9
13
19
27
31
33
39
45
49
43
39
29
23
19
13
5
-7
-17
-21
-29
-35
-35
-39
-39
-43
-61
-93
-135
-171
-201
-223
-235
-241
-241
-237
-227
-213
-201
-183
-171
-163
-153
-151
-145
-135
-123
-101
-77
-57
-51
-51
-51
-49
-43
-37
-31
-29
-27
-25
-19
-15
-13
-9
-3
3
7
11
13
19
21
19
23
21
25
25
19
15
7
1
-1
-5
-9
-19
-27
-33
-43
-43
-45
-59
-95
-145
-187
-219
-233
-241
-243
-241
-231
-221
-211
-195
-179
-167
-163
-159
-153
-147
-137
-127
-113
-97
-77
-61
-51
-45
-43
-39
-39
-37
-31
-25
-19
-13
-9
-5
-3
5
11
17
17
19
27
27
31
33
35
31
27
23
23
19
13
9
1
-7
-13
-19
-25
-29
-35
-45
-51
-55
-57
-57
-55
-57
-59
-67
-89
-129
-165
-193
-219
-235
-241
-237
-231
-223
-213
-203
-189
-175
-165
-161
-151
-145
-139
-133
-121
-101
-81
-65
-51
-45
-41
-37
-31
-27
-21
-17
-15
-13
-7
-1
3
7
9
13
17
25
31
35
35
35
33
35
33
33
27
19
13
7
1
-1
-5
-15
-23
-31
-35
-37
-39
-47
-53
-59
-65
-67
-67
-67
-75
-81
-81
-85
-83
-83
-83
-87
-87
-85
-87
-87
-85
-87
-89
-91
-91
-89
-89
-87
-87
-89
-87
-85
-83
-81
-79
-79
-83
-85
-87
-87
-85
-85
-91
-93
-97
-95
-99
-97
-99
-103
-103
-103
-97
-99
-99
-99
-105
-103
-93
-67
-29
13
43
43
-3
-63
-99
-105
-97
-93
-93
-97
-97
-95
-95
-95
-99
-99
-99
-97
-95
-97
-99
-99
-97
-97
-95
-93
-95
-97
-97
-95
-95
-93
-93
-97
-99
-101
-99
-95
-95
-95
-97
-101
-99
-97
-95
-89
-93
-93
-93
-91
-85
-83
-83
-81
-83
-81
-77
-75
-71
-73
-75
-75
-75
-73
-73
-73
-75
-81
-81
-83
-83
-85
-83
-89
-91
-87
-85
-87
-89
-91
-93
-93
-91
-89
-91
-87
-87
-89
-85
-89
-89
-87
-85
-87
-89
-85
-83
-81
-79
-83
-87
-85
-85
-81
-81
-81
-85
-89
-89
-89
-89
-91
-91
-95
-99
-99
-99
-97
-95
-93
-95
-95
-99
-97
-97
-93
-75
-51
-13
31
57
43
1
-53
-85
-89
-85
-81
-81
-83
-85
-89
-91
-89
-89
-89
-91
-89
-93
-91
-85
-87
-87
-91
-93
-91
-87
-87
-87
-87
-89
-93
-91
-89
-87
-89
-91
-91
-91
-89
-89
-93
-93
-95
-95
-93
-93
-93
-91
-89
-89
-87
-85
-79
-79
-77
-75
-75
-71
-71
-69
-67
-67
-69
-73
-75
-75
-77
-77
-77
-79
-83
-79
-77
-79
-77
-79
-83
-81
-83
-85
-83
-83
-83
-89
-85
-83
-83
-85
-87
-83
-87
-87
-85
-83
-79
-79
-83
-85
-85
-81
-79
-77
-75
-77
-77
-79
-81
-79
-81
-87
-87
-87
-87
-87
-89
-91
-95
-95
-95
-91
-87
-85
-83
-79
-67
-59
-59
-73
-99
-115
-119
-119
-127
-133
-131
-119
-103
-89
-81
-75
-71
-71
-71
-75
-71
-69
-67
-67
-65
-67
-67
-65
-63
-61
-59
-57
-55
-55
-55
-57
-55
-55
-49
-51
-49
-47
-43
-43
-41
-43
-39
-33
-33
-31
-33
-31
-35
-35
-35
-33
-35
-39
-45
-57
-71
-99
-145
-195
-233
-259
-283
-295
-301
-299
-297
-287
-267
-245
-213
-181
-153
-133
-123
-109
-83
-53
-33
-23
-19
-17
-17
-11
-7
-5
-1
1
3
7
9
15
21
23
27
33
39
41
45
45
49
53
55
55
55
55
53
49
39
39
31
25
17
7
1
-9
-17
-23
-23
-29
-33
-39
-41
-35
-25
-29
-47
-89
-141
-181
-209
-231
-239
-237
-237
-233
-223
-209
-199
-185
-173
-161
-155
-151
-143
-137
-125
-119
-111
-87
-63
-45
-39
-35
-33
-27
-21
-17
-17
-13
-13
-9
-5
-3
3
7
9
13
13
15
19
21
27
31
31
27
25
23
21
19
11
5
-1
-5
-7
-17
-47
-97
-149
-191
-215
-231
-241
-243
-241
-227
-209
-189
-171
-159
-151
-143
-139
-131
-121
-103
-77
-57
-45
-43
-41
-41
-31
-31
-29
-27
-25
-23
-17
-11
-7
-5
-1
1
5
11
15
21
27
33
33
29
29
25
17
13
5
-3
-13
-21
-29
-35
-39
-35
-31
-35
-53
-95
-141
-179
-207
-225
-237
-241
-233
-223
-207
-181
-165
-151
-133
-109
-87
-71
-63
-63
-63
-63
-61
-59
-59
-53
-49
-47
-45
-47
-45
-43
-35
-31
-31
-33
-29
-27
-21
-17
-13
-13
-15
-11
-9
-5
-5
-9
-15
-23
-25
-27
-31
-37
-41
-47
-49
-53
-57
-71
-103
-155
-203
-235
-257
-267
-273
-275
-269
-253
-235
-215
-195
-179
-169
-161
-153
-147
-135
-125
-109
-89
-67
-51
-47
-45
-39
-35
-31
-29
-25
-21
-19
-15
-15
-11
-9
-3
3
7
13
17
19
25
31
33
39
41
37
33
31
23
5
-31
-83
-135
-175
-199
-213
-221
-215
-205
-191
-175
-163
-151
-143
-139
-137
-135
-131
-123
-111
-91
-69
-57
-51
-45
-39
-35
-35
-31
-31
-31
-27
-19
-17
-15
-13
-9
-9
-5
-3
-1
-1
-1
-3
-3
-7
-9
-15
-23
-31
-35
-39
-41
-43
-45
-47
-47
-59
-81
-125
-171
-209
-229
-239
-239
-231
-229
-221
-213
-201
-183
-167
-157
-149
-145
-139
-135
-127
-117
-99
-75
-55
-45
-39
-33
-29
-25
-21
-19
-17
-13
-9
-5
-1
1
5
7
15
21
23
25
31
31
33
33
35
33
31
25
21
15
13
9
7
1
-5
-11
-17
-23
-41
-75
-119
-159
-189
-207
-219
-229
-231
-231
-227
-217
-203
-185
-169
-161
-155
-149
-143
-137
-121
-97
-77
-63
-53
-49
-47
-43
-39
-39
-39
-37
-31
-29
-25
-27
-23
-21
-15
-17
-11
-9
-9
-9
-7
-3
-1
-1
-1
-7
-9
-15
-19
-21
-25
-31
-35
-41
-45
-59
-95
-139
-191
-221
-237
-247
-243
-241
-233
-227
-215
-199
-181
-171
-161
-155
-149
-143
-131
-115
-95
-69
-51
-41
-39
-37
-33
-29
-27
-25
-23
-17
-13
-7
-3
1
3
5
9
17
23
25
23
25
25
25
25
23
17
11
5
1
-3
-9
-15
-23
-29
-35
-41
-43
-47
-49
-53
-55
-61
-61
-63
-61
-61
-67
-69
-73
-77
-77
-81
-85
-87
-91
-93
-95
-97
-97
-97
-99
-99
-99
-97
-97
-99
-101
-103
-103
-99
-97
-99
-101
-105
-103
-89
-57
-13
33
53
41
-25
-87
-111
-107
-95
-91
-95
-99
-101
-101
-103
-105
-105
-105
-101
-103
-103
-101
-105
-103
-105
-105
-101
-103
-103
-105
-107
-107
-105
-101
-103
-103
-107
-109
-105
-103
-103
-101
-105
-105
-103
-101
-99
-99
-99
-97
-99
-95
-91
-89
-89
-85
-87
-87
-83
-79
-79
-81
-85
-85
-87
-87
-87
-89
-93
-95
-97
-99
-97
-97
-97
-99
-101
-103
-103
-97
-95
-97
-103
-103
-101
-101
-97
-95
-93
-95
-93
-93
-91
-87
-85
-83
-83
-87
-87
-91
-89
-89
-89
-91
-93
-95
-95
-97
-101
-101
-103
-101
-101
-97
-99
-97
-99
-101
-107
-107
-91
-57
-7
47
87
75
5
-69
-105
-109
-99
-91
-87
-89
-91
-95
-97
-99
-97
-97
-95
-95
-99
-97
-95
-95
-95
-93
-91
-91
-93
-87
-89
-89
-89
-91
-93
-91
-89
-87
-87
-85
-85
-87
-87
-83
-79
-79
-77
-77
-77
-73
-71
-67
-63
-63
-65
-63
-61
-57
-57
-57
-61
-63
-65
-67
-69
-71
-73
-77
-79
-79
-81
-79
-85
-87
-91
-89
-89
-87
-85
-85
-89
-89
-91
-89
-89
-89
-89
-89
-93
-91
-93
-91
-87
-87
-89
-91
-87
-83
-81
-81
-83
-81
-77
-75
-75
-77
-81
-85
-87
-83
-83
-81
-83
-89
-95
-99
-97
-95
-91
-93
-97
-97
-97
-95
-95
-99
-101
-89
-57
-7
55
99
85
17
-61
-109
-109
-93
-85
-85
-89
-91
-93
-89
-89
-87
-89
-91
-91
-89
-87
-87
-85
-87
-89
-87
-87
-85
-83
-87
-87
-85
-85
-83
-87
-85
-87
-89
-89
-89
-87
-85
-87
-87
-87
-87
-85
-81
-79
-79
-77
-77
-75
-75
-69
-67
-69
-75
-73
-71
-73
-73
-73
-79
-81
-81
-81
-81
-83
-81
-87
-85
-85
-85
-83
-85
-83
-85
-85
-85
-83
-81
-83
-83
-87
-85
-85
-83
-81
-83
-83
-81
-79
-75
-75
-75
-73
-73
-75
-77
-77
-79
-79
-83
-85
-87
-87
-89
-93
-95
-93
-95
-93
-93
-89
-91
-91
-93
-97
-99
-99
-81
-43
11
61
87
57
-17
-85
-107
-95
-81
-73
-77
-83
-85
-89
-89
-89
-89
-89
-85
-87
-87
-89
-87
-85
-83
-83
-83
-85
-85
-83
-81
-79
-81
-83
-83
-83
-83
-83
-81
-85
-85
-85
-89
-85
-85
-87
-87
-85
-87
-87
-83
-83
-79
-79
-77
-77
-75
-69
-67
-67
-69
-71
-71
-73
-73
-71
-73
-77
-79
-81
-79
-79
-81
-81
-85
-85
-81
-79
-81
-79
-83
-85
-87
-83
-83
-81
-83
-85
-83
-83
-83
-81
-81
-81
-79
-77
-75
-75
-71
-69
-69
-75
-79
-81
-81
-81
-87
-87
-89
-91
-93
-95
-95
-95
-97
-95
-93
-93
-91
-93
-97
-103
-95
-67
-17
37
83
71
7
-71
-107
-95
-79
-73
-79
-83
-85
-83
-83
-85
-85
-83
-83
-83
-81
-83
-83
-83
-81
-79
-81
-81
-81
-81
-81
-81
-79
-81
-81
-81
-85
-85
-83
-81
-81
-81
-83
-85
-87
-83
-85
-81
-81
-81
-79
-79
-73
-69
-65
-63
-69
-65
-63
-61
-63
-67
-69
-71
-71
-71
-71
-73
-75
-77
-79
-79
-79
-81
-77
-79
-81
-81
-83
-79
-77
-77
-79
-83
-83
-83
-83
-81
-79
-79
-83
-83
-81
-79
-77
-77
-77
-75
-75
-73
-69
-65
-65
-73
-77
-73
-75
-75
-81
-83
-89
-93
-95
-93
-89
-91
-95
-93
-91
-89
-91
-93
-99
-99
-79
-41
9
61
99
63
-13
-79
-101
-93
-73
-71
-75
-79
-81
-81
-79
-79
-81
-81
-81
-81
-81
-79
-75
-77
-79
-79
-79
-79
-79
-79
-81
-79
-79
-77
-79
-81
-81
-81
-81
-79
-79
-81
-83
-83
-85
-87
-85
-83
-83
-81
-81
-81
-77
-73
-69
-67
-67
-67
-65
-61
-63
-61
-63
-63
-63
-65
-67
-69
-69
-67
-73
-75
-75
-73
-73
-75
-73
-77
-77
-77
-77
-75
-77
-79
-79
-83
-81
-81
-79
-83
-83
-85
-83
-83
-83
-79
-79
-79
-79
-75
-71
-71
-71
-69
-67
-73
-77
-77
-77
-75
-77
-81
-81
-81
-79
-87
-91
-93
-89
-89
-91
-87
-87
-87
-89
-91
-93
-97
-89
-67
-27
31
85
111
69
-5
-69
-89
-81
-69
-67
-69
-77
-77
-83
-87
-85
-79
-79
-79
-83
-83
-85
-81
-81
-81
-83
-81
-81
-79
-79
-83
-79
-81
-79
-83
-79
-79
-81
-81
-83
-83
-83
-83
-81
-79
-79
-81
-79
-79
-77
-73
-71
-69
-67
-63
-65
-65
-61
-57
-59
-63
-63
-59
-61
-63
-65
-67
-71
-69
-73
-71
-71
-75
-79
-81
-77
-75
-71
-77
-79
-81
-79
-79
-79
-79
-79
-83
-83
-83
-83
-81
-81
-83
-83
-85
-85
-79
-75
-73
-77
-77
-73
-67
-63
-71
-75
-77
-81
-81
-81
-79
-85
-87
-87
-85
-83
-81
-81
-81
-85
-91
-87
-87
-93
-89
-67
-23
37
95
121
77
-15
-71
-83
-73
-63
-65
-71
-77
-77
-81
-83
-79
-77
-77
-75
-79
-81
-81
-79
-77
-79
-79
-79
-81
-79
-79
-77
-77
-81
-81
-79
-73
-71
-77
-83
-85
-79
-81
-81
-79
-79
-79
-79
-79
-77
-73
-69
-69
-71
-67
-63
-61
-59
-61
-63
-63
-61
-61
-59
-63
-67
-71
-71
-71
-69
-69
-71
-73
-77
-77
-75
-73
-73
-77
-79
-77
-81
-83
-79
-79
-83
-83
-85
-85
-83
-83
-81
-85
-89
-91
-87
-83
-81
-81
-77
-79
-77
-75
-71
-71
-73
-79
-81
-79
-77
-79
-81
-83
-85
-87
-91
-89
-85
-87
-85
-89
-87
-85
-83
-89
-95
-89
-63
-23
31
75
85
31
-51
-95
-95
-75
-65
-69
-83
-89
-87
-83
-81
-81
-85
-85
-87
-87
-87
-85
-83
-85
-83
-85
-83
-83
-83
-83
-85
-85
-81
-83
-81
-85
-87
-85
-83
-83
-81
-81
-81
-81
-81
-81
-81
-77
-73
-73
-75
-77
-75
-67
-65
-63
-63
-65
-67
-65
-65
-67
-69
-71
-77
-79
-77
-75
-77
-83
-83
-85
-85
-87
-85
-83
-85
-89
-89
-89
-87
-89
-93
-93
-93
-93
-93
-91
-91
-89
-91
-95
-93
-89
-83
-85
-87
-85
-83
-79
-77
-77
-79
-87
-87
-85
-85
-83
-87
-89
-95
-97
-97
-97
-91
-91
-95
-97
-99
-91
-91
-97
-105
-103
-87
-49
1
51
75
43
-33
-93
-109
-95
-79
-79
-87
-95
-97
-93
-91
-89
-93
-97
-95
-95
-95
-93
-93
-91
-95
-97
-95
-93
-89
-89
-91
-93
-91
-91
-89
-87
-87
-87
-91
-95
-91
-89
-87
-87
-87
-87
-87
-87
-83
-81
-81
-79
-79
-73
-67
-69
-69
-73
-73
-73
-69
-69
-73
-77
-81
-83
-83
-81
-85
-81
-87
-91
-95
-93
-91
-93
-93
-95
-95
-97
-97
-95
-93
-95
-97
-97
-97
-99
-97
-95
-95
-97
-97
-97
-97
-95
-93
-89
-87
-89
-89
-83
-83
-75
-81
-89
-93
-91
-87
-87
-91
-93
-93
-95
-95
-97
-99
-99
-97
-99
-97
-95
-99
-101
-105
-111
-105
-87
-55
-9
37
51
15
-53
-103
-115
-99
-89
-89
-91
-95
-93
-93
-95
-99
-103
-99
-95
-97
-97
-99
-99
-97
-97
-97
-95
-93
-97
-95
-95
-93
-89
-89
-95
-99
-95
-93
-91
-91
-91
-91
-91
-93
-91
-91
-89
-87
-91
-93
-95
-95
-87
-83
-79
-81
-81
-79
-77
-79
-77
-81
-79
-77
-79
-83
-85
-85
-87
-91
-93
-97
-95
-93
-95
-97
-97
-97
-97
-95
-99
-97
-97
-97
-99
-97
-97
-93
-95
-95
-97
-99
-95
-93
-95
-95
-93
-87
-83
-83
-83
-85
-81
-81
-81
-81
-85
-85
-89
-89
-91
-91
-93
-99
-99
-101
-103
-101
-95
-97
-99
-101
-101
-105
-105
-91
-63
-27
19
45
19
-43
-97
-115
-105
-93
-91
-89
-95
-99
-99
-101
-103
-103
-99
-97
-99
-97
-99
-99
-99
-97
-95
-95
-95
-97
-97
-97
-91
-91
-91
-95
-93
-91
-91
-91
-91
-91
-93
-93
-93
-93
-91
-93
-93
-93
-91
-87
-85
-81
-83
-85
-83
-81
-75
-73
-73
-73
-77
-79
-77
-77
-77
-79
-83
-87
-87
-87
-83
-89
-91
-91
-89
-91
-91
-91
-91
-91
-91
-91
-91
-93
-89
-89
-89
-91
-91
-89
-85
-87
-89
-91
-89
-87
-87
-83
-81
-79
-79
-81
-81
-75
-69
-69
-73
-81
-83
-81
-81
-81
-83
-85
-89
-93
-93
-93
-91
-89
-91
-97
-95
-91
-91
-93
-101
-109
-103
-79
-39
11
57
59
13
-57
-107
-113
-97
-85
-85
-87
-91
-95
-93
-93
-93
-91
-89
-93
-93
-89
-89
-89
-87
-89
-85
-85
-85
-85
-85
-87
-87
-89
-83
-81
-83
-85
-89
-83
-85
-85
-85
-87
-87
-89
-89
-87
-83
-83
-83
-85
-83
-81
-77
-73
-73
-75
-77
-71
-69
-71
-73
-77
-81
-77
-75
-79
-81
-83
-83
-83
-85
-87
-85
-85
-85
-89
