-23
-25
-23
-17
-17
-23
-19
-19
-21
-17
-17
-17
-17
-13
-17
-23
-21
-21
-23
-17
-21
-25
-27
-25
-31
-33
-33
-31
-35
-33
-31
-33
-33
-29
-29
-29
-27
-25
-27
-27
-25
-25
-23
-23
-23
-25
-25
-23
-23
-25
-23
-27
-27
-21
-23
-19
-13
-3
5
23
47
53
65
87
91
81
65
41
-1
-29
-39
-43
-49
-47
-51
-55
-57
-55
-57
-63
-63
-69
-71
-63
-67
-69
-67
-65
-69
-65
-61
-65
-59
-55
-55
-55
-53
-47
-47
-49
-47
-43
-39
-35
-35
-33
-29
-29
-29
-33
-33
-29
-29
-33
-35
-33
-33
-37
-35
-33
-37
-37
-35
-35
-39
-35
-29
-31
-33
-37
-31
-33
-37
-35
-37
-41
-41
-43
-47
-45
-43
-43
-47
-43
-43
-43
-45
-45
-45
-45
-39
-39
-41
-41
-41
-43
-41
-43
-47
-43
-43
-47
-47
-45
-49
-49
-45
-45
-41
-37
-27
-13
7
31
57
79
87
95
97
83
63
39
-1
-27
-51
-61
-61
-63
-69
-71
-73
-73
-77
-81
-83
-83
-79
-81
-79
-79
-79
-79
-75
-75
-75
-73
-69
-71
-71
-67
-67
-63
-63
-61
-57
-55
-51
-51
-49
-43
-39
-37
-37
-35
-43
-49
-43
-45
-47
-45
-47
-49
-47
-45
-49
-51
-51
-51
-53
-53
-51
-55
-55
-53
-55
-55
-49
-43
-45
-43
-35
-31
-7
25
39
53
63
57
45
29
5
-29
-57
-73
-85
-85
-85
-91
-93
-95
-93
-97
-97
-95
-97
-95
-93
-91
-91
-89
-87
-85
-81
-79
-77
-77
-73
-71
-69
-65
-61
-61
-59
-55
-55
-51
-49
-51
-51
-53
-53
-55
-57
-55
-57
-61
-59
-65
-67
-69
-69
-69
-65
-65
-63
-65
-65
-63
-69
-65
-61
-55
-51
-45
-49
-43
-21
15
31
49
59
65
55
43
19
-15
-45
-79
-97
-95
-95
-101
-103
-103
-107
-107
-103
-103
-105
-99
-103
-103
-103
-101
-103
-105
-99
-103
-103
-99
-99
-101
-97
-95
-93
-89
-87
-87
-79
-75
-71
-69
-69
-65
-69
-67
-69
-69
-69
-67
-69
-69
-71
-71
-73
-73
-75
-77
-77
-75
-77
-77
-77
-77
-77
-79
-75
-79
-77
-75
-75
-73
-73
-75
-79
-71
-67
-71
-73
-71
-71
-71
-69
-71
-75
-73
-73
-75
-77
-73
-73
-75
-77
-75
-79
-77
-73
-79
-81
-77
-75
-79
-79
-77
-81
-77
-73
-77
-75
-77
-79
-79
-77
-73
-75
-71
-71
-75
-75
-73
-73
-73
-73
-73
-75
-73
-75
-77
-77
-75
-73
-75
-73
-71
-75
-71
-71
-73
-73
-71
-71
-71
-71
-71
-75
-71
-71
-71
-73
-71
-71
-73
-71
-73
-73
-73
-69
-75
-75
-71
-71
-73
-71
-71
-69
-69
-69
-69
-71
-73
-77
-73
-69
-71
-75
-73
-71
-71
-73
-69
-71
-71
-65
-61
-59
-49
-37
-25
-13
1
37
63
85
91
93
99
97
75
47
27
-9
-43
-69
-91
-91
-93
-95
-101
-101
-101
-103
-105
-103
-105
-107
-107
-105
-109
-109
-109
-109
-109
-105
-105
-107
-103
-103
-103
-101
-101
-99
-101
-99
-101
-99
-97
-97
-97
-97
-91
-87
-83
-79
-75
-73
-67
-65
-67
-63
-61
-61
-63
-61
-59
-61
-61
-59
-61
-57
-55
-55
-55
-55
-57
-57
-57
-55
-55
-53
-39
-31
-19
-15
-35
-83
-147
-205
-241
-255
-253
-241
-221
-197
-167
-135
-101
-79
-71
-65
-61
-59
-57
-57
-53
-51
-51
-49
-55
-53
-53
-51
-53
-47
-47
-47
-43
-39
-39
-37
-31
-27
-25
-17
-15
-11
-5
3
7
13
17
19
23
25
25
21
21
17
11
3
1
-11
-19
-23
-35
-39
-41
-45
-45
-51
-55
-55
-57
-57
-57
-61
-61
-59
-59
-61
-61
-61
-65
-63
-65
-67
-67
-67
-67
-67
-65
-67
-69
-65
-65
-69
-67
-67
-67
-69
-69
-69
-73
-69
-69
-71
-71
-69
-69
-69
-67
-67
-67
-67
-61
-53
-45
-37
-31
-29
-23
-3
11
19
33
39
33
17
1
-29
-55
-71
-79
-79
-79
-85
-85
-85
-89
-91
-93
-93
-93
-95
-93
-95
-93
-93
-95
-95
-89
-91
-89
-89
-85
-83
-83
-79
-81
-83
-79
-77
-77
-75
-73
-69
-69
-67
-67
-67
-65
-63
-65
-63
-65
-63
-65
-65
-65
-67
-69
-71
-73
-71
-69
-69
-69
-63
-65
-63
-63
-65
-67
-65
-63
-69
-69
-71
-75
-75
-75
-75
-77
-75
-77
-79
-81
-79
-83
-81
-77
-79
-79
-81
-81
-81
-77
-77
-79
-79
-79
-79
-77
-71
-65
-63
-59
-49
-41
-21
-7
-1
9
13
5
-11
-27
-53
-81
-95
-101
-101
-105
-105
-107
-107
-109
-111
-111
-107
-107
-107
-109
-107
-107
-109
-107
-105
-105
-103
-105
-105
-105
-103
-99
-99
-101
-99
-105
-99
-97
-97
-93
-93
-91
-93
-87
-83
-85
-83
-85
-83
-87
-85
-85
-89
-87
-87
-87
-89
-89
-89
-91
-89
-91
-91
-91
-91
-93
-95
-93
-95
-95
-93
-95
-95
-95
-93
-97
-93
-91
-87
-87
-89
-89
-91
-71
-39
-15
15
29
29
21
3
-35
-67
-89
-99
-99
-101
-103
-105
-105
-105
-107
-109
-109
-107
-109
-111
-105
-105
-103
-101
-101
-97
-95
-91
-91
-87
-83
-83
-81
-77
-75
-75
-73
-71
-67
-67
-63
-63
-65
-65
-67
-67
-65
-65
-71
-71
-73
-75
-75
-75
-75
-73
-71
-69
-69
-67
-63
-63
-61
-57
-59
-63
-61
-35
-5
17
41
51
55
47
33
-7
-45
-71
-81
-81
-85
-89
-91
-91
-93
-93
-91
-89
-93
-89
-89
-87
-87
-85
-85
-87
-81
-79
-77
-73
-73
-69
-67
-61
-59
-59
-55
-53
-53
-49
-45
-49
-49
-47
-49
-49
-45
-47
-49
-47
-45
-47
-49
-49
-47
-51
-47
-47
-47
-45
-41
-45
-37
-35
-31
-29
-25
-11
23
51
73
95
103
103
89
69
35
-7
-39
-51
-53
-57
-61
-61
-63
-69
-69
-69
-71
-69
-67
-71
-65
-65
-63
-63
-57
-61
-57
-57
-59
-55
-49
-43
-39
-37
-29
-25
-21
-17
-17
-15
-13
-13
-17
-19
-23
-23
-25
-23
-25
-27
-27
-27
-29
-29
-25
-21
-23
-21
-19
-23
-21
-21
-21
-21
-19
-21
-19
-17
-17
-21
-19
-19
-19
-19
-19
-21
-23
-19
-23
-23
-23
-19
-17
-19
-13
-13
-11
-11
-9
-7
-7
-5
-7
-5
-3
1
9
17
29
43
55
87
123
145
155
159
155
137
107
75
35
-3
-23
-27
-27
-31
-35
-35
-37
-39
-37
-35
-37
-35
-31
-31
-31
-29
-31
-29
-29
-29
-31
-31
-27
-27
-29
-27
-25
-23
-21
-17
-15
-9
-5
1
5
9
11
13
17
21
19
19
21
21
21
23
21
19
19
19
19
19
17
15
13
21
23
13
3
-1
-1
9
23
37
67
99
123
135
141
141
125
97
79
47
23
-3
-15
-17
-19
-21
-27
-29
-29
-33
-35
-33
-35
-41
-37
-35
-39
-37
-31
-33
-31
-29
-25
-23
-19
-19
-19
-15
-13
-11
-9
-3
-1
3
9
11
13
15
15
15
15
15
13
11
9
7
3
5
5
3
5
9
13
17
27
33
37
39
51
83
121
143
153
161
161
147
127
99
61
23
-9
-15
-21
-25
-29
-31
-35
-39
-41
-41
-41
-39
-41
-39
-35
-33
-31
-27
-23
-25
-23
-17
-15
-17
-15
-9
-13
-11
-5
-5
-1
1
3
7
9
7
7
7
5
-1
3
3
-1
-3
-3
-3
-1
1
3
5
11
17
17
25
31
41
63
103
121
135
145
145
129
103
69
25
-9
-23
-27
-35
-39
-39
-45
-51
-49
-51
-51
-49
-47
-47
-43
-43
-41
-41
-35
-35
-35
-33
-33
-31
-31
-25
-29
-23
-23
-21
-19
-15
-13
-15
-11
-11
-13
-15
-15
-17
-15
-13
-15
-15
-13
-11
-13
-13
-9
-11
-13
-11
-11
-13
-13
-5
-1
5
15
15
19
43
77
101
117
129
129
119
105
83
53
27
-3
-35
-41
-43
-45
-47
-49
-51
-57
-57
-57
-61
-61
-59
-65
-63
-63
-65
-65
-63
-63
-65
-65
-63
-65
-63
-61
-61
-57
-55
-51
-49
-41
-37
-35
-29
-27
-25
-25
-21
-25
-25
-25
-23
-27
-27
-25
-27
-27
-25
-27
-29
-27
-29
-29
-33
-31
-35
-37
-37
-37
-39
-33
-31
-31
-31
-29
-29
-29
-29
-31
-33
-33
-35
-37
-35
-35
-39
-39
-39
-41
-39
-39
-39
-41
-41
-41
-43
-47
-47
-49
-49
-45
-43
-43
-39
-39
-41
-43
-39
-41
-39
-39
-39
-43
-43
-39
-41
-41
-41
-39
-43
-41
-41
-41
-43
-41
-45
-45
-43
-47
-45
-45
-45
-51
-51
-49
-49
-49
-45
-45
-47
-47
-47
-49
-49
-49
-51
-47
-49
-51
-51
-49
-49
-51
-51
-49
-51
-49
-47
-39
-31
-21
-7
5
33
65
95
101
107
105
89
63
35
-5
-41
-65
-81
-87
-87
-93
-93
-97
-99
-101
-103
-103
-105
-103
-101
-103
-105
-105
-105
-105
-105
-101
-101
-101
-97
-99
-101
-99
-103
-101
-97
-97
-99
-95
-93
-91
-91
-89
-87
-85
-83
-79
-77
-75
-71
-73
-75
-71
-69
-71
-71
-73
-73
-71
-73
-73
-75
-71
-69
-69
-67
-63
-67
-63
-63
-65
-67
-67
-63
-65
-67
-55
-43
-31
-33
-59
-109
-163
-205
-233
-241
-225
-209
-189
-171
-153
-129
-111
-95
-83
-79
-75
-77
-75
-69
-69
-67
-65
-67
-67
-65
-65
-65
-61
-61
-61
-57
-55
-51
-49
-43
-35
-33
-25
-21
-19
-15
-5
-7
-1
-3
-3
-9
-15
-21
-29
-35
-37
-41
-45
-49
-53
-57
-61
-57
-59
-51
-39
-45
-61
-77
-89
-107
-111
-103
-97
-83
-51
-21
-17
-21
-25
-23
-29
-41
-57
-67
-71
-71
-79
-81
-79
-79
-79
-81
-79
-79
-77
-73
-71
-71
-67
-67
-65
-61
-57
-53
-49
-45
-39
-37
-37
-29
-29
-25
-23
-21
-21
-19
-19
-23
-25
-29
-31
-33
-37
-41
-41
-43
-47
-49
-47
-49
-49
-49
-49
-53
-55
-51
-49
-49
-51
-47
-47
-47
-45
-47
-49
-47
-49
-49
-47
-45
-47
-47
-41
-39
-31
-21
-15
-9
7
37
65
89
107
107
95
77
55
27
-7
-35
-55
-57
-61
-65
-69
-69
-71
-71
-71
-71
-75
-75
-73
-75
-75
-71
-71
-69
-69
-69
-67
-67
-69
-69
-65
-63
-61
-59
-55
-53
-51
-47
-45
-41
-41
-35
-35
-31
-33
-33
-33
-35
-35
-39
-39
-37
-39
-39
-35
-29
-21
-15
-25
-41
-53
-61
-71
-91
-95
-93
-87
-73
-53
-33
-17
-1
7
-13
-27
-39
-47
-41
-33
-35
-37
-33
-37
-37
-37
-39
-37
-37
-31
-35
-29
-25
-25
-23
-19
-13
-11
-5
-1
1
7
11
13
17
21
21
21
23
21
17
17
15
9
5
3
-3
-5
-7
-11
-15
-13
-15
-11
-13
-7
-3
-1
-7
-13
-21
-13
19
51
69
97
113
115
109
97
85
49
23
-7
-35
-39
-41
-45
-45
-49
-51
-55
-51
-53
-55
-53
-57
-59
-57
-57
-57
-55
-53
-51
-47
-43
-41
-37
-35
-31
-27
-23
-17
-15
-13
-9
-9
-9
-9
-7
-11
-11
-11
-15
-17
-17
-21
-25
-23
-25
-25
-25
-23
-25
-23
-19
-17
-13
-3
3
7
13
17
43
81
109
125
129
127
111
83
47
17
-19
-39
-39
-49
-57
-59
-63
-67
-69
-67
-67
-67
-65
-63
-63
-61
-61
-57
-55
-53
-53
-51
-49
-47
-45
-41
-39
-37
-29
-27
-25
-23
-19
-15
-13
-9
-13
-15
-15
-17
-23
-27
-23
-25
-23
-23
-23
-23
-23
-19
-19
-19
-15
-17
-19
-19
-19
-19
-21
-19
-19
-7
-1
5
1
17
55
85
103
115
113
101
79
47
3
-35
-51
-55
-57
-61
-63
-63
-63
-67
-71
-65
-67
-67
-65
-63
-63
-61
-61
-61
-57
-53
-53
-51
-49
-45
-45
-43
-37
-35
-33
-29
-25
-23
-21
-21
-23
-23
-23
-25
-27
-25
-27
-29
-29
-27
-31
-31
-31
-33
-29
-19
-17
-15
-13
-7
11
45
75
87
103
107
103
85
63
41
9
-25
-51
-63
-63
-63
-69
-71
-73
-73
-77
-75
-75
-77
-77
-75
-75
-75
-75
-73
-75
-73
-71
-73
-67
-65
-67
-65
-59
-51
-47
-43
-39
-37
-35
-33
-37
-39
-35
-35
-37
-41
-37
-39
-39
-37
-39
-37
-39
-33
-21
-9
-3
-7
-7
13
51
69
85
91
83
63
43
17
-17
-47
-71
-75
-79
-83
-85
-87
-85
-89
-89
-87
-93
-91
-91
-89
-87
-85
-81
-83
-83
-79
-79
-77
-69
-67
-65
-63
-61
-61
-57
-55
-51
-47
-45
-43
-43
-47
-49
-49
-51
-49
-51
-53
-53
-53
-55
-55
-55
-55
-53
-51
-51
-51
-51
-51
-55
-55
-53
-55
-53
-51
-55
-53
-51
-51
-53
-51
-53
-57
-53
-53
-55
-57
-55
-55
-57
-55
-55
-53
-53
-51
-55
-51
-49
-49
-51
-49
-51
-53
-49
-51
-51
-51
-51
-55
-53
-53
-53
-57
-55
-57
-57
-57
-55
-55
-53
-53
-51
-53
-49
-49
-51
-53
-51
-53
-53
-51
-51
-53
-51
-51
-51
-53
-49
-49
-47
-45
-45
-49
-45
-47
-49
-47
-49
-47
-49
-47
-47
-47
-43
-47
-45
-45
-41
-45
-47
-45
-45
-49
-45
-45
-45
-45
-43
-47
-43
-41
-45
-43
-43
-43
-47
-45
-45
-47
-47
-47
-47
-47
-45
-47
-45
-47
-47
-45
-43
-43
-43
-43
-41
-41
-41
-39
-37
-39
-39
-37
-37
-37
-35
-35
-37
-35
-37
-35
-29
-21
-17
-13
-3
5
25
41
51
65
75
63
41
15
-19
-41
-53
-59
-59
-63
-63
-65
-65
-67
-69
-71
-69
-69
-67
-69
-69
-67
-67
-71
-69
-67
-67
-65
-63
-63
-59
-57
-59
-55
-55
-51
-49
-47
-45
-45
-41
-41
-35
-37
-33
-29
-29
-25
-23
-21
-21
-17
-15
-17
-13
-13
-15
-15
-15
-15
-13
-13
-17
-21
-21
-19
-23
-19
-15
-9
7
29
49
55
71
65
21
-65
-167
-231
-251
-261
-261
-261
-249
-235
-215
-199
-183
-167
-143
-121
-111
-101
-79
-61
-41
-23
-9
1
9
13
15
19
21
23
29
35
41
45
51
57
65
75
83
95
103
113
117
121
125
125
123
117
117
111
101
97
87
79
69
61
53
45
39
29
21
15
7
-1
-3
-7
-17
-29
-29
-33
-37
-39
-45
-45
-45
-43
-45
-49
-45
-47
-49
-49
-51
-53
-53
-51
-53
-55
-53
-57
-59
-61
-59
-59
-59
-59
-59
-55
-53
-51
-53
-55
-53
-57
-53
-57
-59
-57
-53
-53
-55
-51
-51
-51
-51
-51
-53
-53
-51
-51
-55
-53
-49
-45
-39
-33
-37
-33
-23
-5
11
23
37
43
43
31
13
-7
-29
-51
-63
-67
-69
-75
-73
-73
-75
-77
-77
-77
-77
-75
-77
-77
-77
-77
-79
-79
-75
-75
-75
-73
-75
-77
-73
-73
-75
-75
-71
-73
-71
-67
-67
-69
-67
-65
-65
-67
-61
-61
-57
-55
-55
-55
-51
-51
-53
-55
-53
-53
-53
-53
-51
-55
-55
-47
-45
-43
-51
-65
-93
-123
-153
-169
-181
-185
-173
-159
-145
-131
-113
-83
-63
-59
-61
-59
-61
-63
-51
-45
-47
-47
-45
-45
-43
-43
-41
-41
-37
-31
-27
-19
-17
-15
-5
-5
-5
-1
7
9
11
15
19
21
25
25
25
23
25
21
17
13
7
1
-3
-9
-17
-25
-25
-31
-39
-43
-47
-51
-49
-51
-51
-53
-53
-53
-55
-55
-57
-59
-53
-57
-57
-57
-53
-53
-57
-55
-57
-59
-61
-59
-61
-59
-59
-59
-61
-61
-59
-61
-61
-61
-63
-63
-61
-63
-63
-63
-63
-63
-61
-61
-63
-63
-63
-63
-63
-63
-63
-61
-59
-59
-61
-61
-59
-65
-65
-61
-63
-63
-63
-65
-69
-69
-65
-65
-63
-65
-63
-63
-61
-63
-63
-61
-59
-61
-61
-61
-61
-59
-59
-59
-61
-59
-57
-61
-59
-59
-61
-59
-59
-57
-57
-57
-55
-57
-55
-49
-47
-45
-39
-33
-21
-7
13
41
63
79
93
99
101
89
59
35
-7
-41
-63
-75
-77
-81
-81
-87
-89
-91
-91
-93
-95
-95
-99
-95
-93
-91
-91
-91
-89
-93
-89
-89
-89
-85
-85
-85
-85
-83
-81
-85
-83
-81
-79
-79
-73
-71
-71
-65
-63
-63
-61
-57
-55
-57
-53
-51
-51
-49
-47
-47
-47
-47
-49
-49
-47
-49
-49
-49
-49
-51
-53
-51
-57
-59
-57
-57
-49
-49
-49
-55
-61
-57
-49
-15
17
45
63
77
77
63
45
39
7
-25
-45
-67
-73
-75
-77
-77
-83
-83
-85
-87
-87
-89
-93
-91
-87
-89
-83
-85
-87
-81
-77
-77
-75
-73
-71
-73
-69
-65
-67
-63
-61
-59
-57
-53
-53
-51
-49
-49
-51
-53
-55
-57
-59
-59
-57
-63
-61
-61
-63
-63
-61
-61
-59
-61
-59
-61
-59
-59
-57
-43
-33
-27
-27
-29
-19
7
33
49
57
65
63
41
23
-3
-41
-65
-77
-81
-83
-87
-85
-89
-87
-85
-87
-89
-87
-87
-89
-89
-85
-85
-87
-85
-85
-85
-83
-81
-83
-77
-75
-75
-71
-69
-63
-63
-57
-53
-55
-49
-45
-47
-45
-43
-45
-47
-47
-47
-53
-53
-53
-55
-57
-55
-59
-59
-59
-57
-59
-51
-47
-49
-53
-61
-65
-47
-21
-1
25
47
49
41
17
-7
-35
-55
-63
-63
-69
-67
-69
-73
-73
-71
-73
-73
-71
-71
-71
-71
-71
-71
-69
-67
-65
-63
-57
-55
-55
-49
-45
-41
-37
-33
-31
-29
-29
-27
-29
-27
-29
-29
-31
-31
-31
-31
-31
-31
-33
-35
-37
-39
-39
-37
-39
-39
-37
-33
-37
-33
-35
-33
-33
-33
-33
-31
-29
-33
-33
-33
-33
-35
-37
-35
-35
-39
-33
-33
-37
-35
-35
-33
-37
-35
-37
-39
-35
-33
-37
-35
-33
-33
-33
-31
-31
-29
-27
-29
-29
-29
-29
-27
-27
-25
-27
-27
-23
-23
-23
-23
-21
-21
-17
-17
-21
-17
-17
-21
-25
-17
-13
-11
-13
-1
7
21
45
73
89
109
121
113
103
85
47
13
-15
-31
-35
-41
-43
-47
-47
-47
-49
-49
-49
-47
-51
-47
-53
-53
-53
-47
-47
-47
-45
-45
-43
-41
-39
-39
-35
-33
-37
-35
-31
-31
-31
-29
-23
-21
-19
-15
-13
-13
-7
-9
-11
-7
-7
-7
-9
-9
-9
-11
-11
-9
-11
-9
-9
-13
-9
-13
-13
-17
-21
-21
-21
-23
-19
-19
-17
-17
-17
-15
-13
-13
-11
-9
-19
-21
-21
-9
25
65
93
109
123
119
101
73
37
1
-35
-43
-45
-47
-51
-53
-51
-53
-53
-51
-51
-51
-49
-47
-47
-45
-45
-45
-41
-39
-39
-37
-33
-31
-31
-27
-27
-25
-19
-15
-15
-15
-13
-15
-17
-17
-19
-23
-23
-23
-27
-27
-27
-31
-31
-27
-29
-29
-29
-23
-21
-23
-21
-19
-19
-1
39
65
85
103
105
101
89
67
41
9
-19
-45
-49
-47
-53
-59
-59
-61
-65
-65
-63
-69
-65
-65
-67
-63
-61
-61
-61
-57
-57
-55
-49
-47
-47
-43
-35
-37
-31
-29
-25
-25
-21
-23
-21
-23
-25
-27
-31
-29
-29
-33
-31
-35
-37
-35
-35
-37
-37
-39
-39
-39
-39
-39
-41
-39
-41
-41
-43
-41
-43
-45
-43
-49
-49
-47
-45
-47
-45
-43
-41
-43
-43
-43
-45
-47
-45
-43
-47
-49
-47
-51
-45
-47
-49
-49
-47
-51
-47
-43
-43
-43
-39
-43
-43
-43
-45
-41
-47
-47
-47
-51
-45
-47
-47
-45
-43
-43
-45
-43
-43
-45
-45
-43
-47
-43
-43
-43
-45
-43
-47
-47
-45
-47
-49
-47
-47
-47
-47
-45
-49
-51
-49
-49
-47
-43
-43
-41
-43
-43
-43
-45
-45
-45
-49
-49
-45
-47
-47
-45
-43
-39
-39
-31
-23
-7
25
61
83
95
101
93
71
35
-15
-47
-67
-69
-77
-79
-81
-83
-83
-85
-87
-89
-83
-89
-87
-87
-87
-87
-83
-81
-83
-81
-81
-81
-79
-79
-81
-79
-77
-77
-77
-75
-73
-73
-71
-67
-65
-63
-57
-57
-53
-49
-49
-47
-45
-45
-45
-45
-43
-43
-41
-43
-41
-45
-43
-41
-43
-45
-41
-47
-49
-45
-37
-29
-29
-37
-43
-43
-37
-61
-93
-111
-119
-123
-129
-125
-109
-99
-93
-87
-73
-61
-61
-59
-59
-59
-61
-59
-57
-59
-61
-57
-55
-57
-55
-53
-53
-51
-47
-43
-45
-35
-33
-29
-25
-15
-13
-9
-1
-3
1
1
-5
-9
-15
-17
-27
-33
-37
-43
-47
-47
-49
-55
-55
-55
-59
-57
-55
-57
-59
-57
-57
-59
-61
-59
-61
-65
-61
-63
-65
-63
-67
-67
-65
-65
-63
-63
-61
-65
-63
-63
-61
-63
-63
-61
-63
-65
-61
-63
-65
-65
-65
-63
-65
-65
-67
-67
-63
-67
-65
-63
-65
-67
-67
-67
-67
-69
-67
-65
-65
-61
-63
-65
-63
-61
-65
-63
-63
-63
-63
-63
-59
-55
-41
-37
-29
-15
-9
15
47
61
69
81
73
45
19
-11
-41
-65
-77
-77
-79
-83
-87
-87
-91
-95
-93
-97
-93
-93
-95
-97
-95
-95
-95
-97
-93
-95
-93
-89
-89
-85
-87
-85
-83
-81
-81
-81
-81
-77
-79
-77
-71
-71
-69
-65
-63
-59
-57
-57
-57
-57
-55
-55
-57
-57
-55
-59
-57
-57
-57
-61
-57
-57
-55
-53
-53
-55
-59
-57
-59
-59
-57
-57
-57
-55
-53
-57
-57
-55
-55
-57
-53
-55
-55
-53
-53
-57
-55
-55
-55
-55
-53
-53
-53
-51
-49
-49
-47
-49
-49
-51
-49
-49
-49
-47
-45
-47
-45
-45
-45
-45
-43
-47
-47
-43
-45
-47
-47
-45
-45
-47
-43
-43
-47
-47
-43
-47
-43
-43
-47
-47
-45
-49
-51
-51
-47
-49
-47
-49
-49
-49
-47
-49
-51
-49
-49
-51
-47
-47
-49
-49
-49
-49
-51
-49
-49
-49
-49
-43
-47
-41
-39
-41
-45
-43
-45
-47
-45
-41
-41
-35
-31
-29
-25
-11
3
19
53
81
93
105
111
101
79
51
19
-17
-43
-57
-61
-65
-65
-67
-75
-73
-75
-79
-79
-77
-79
-79
-77
-77
-75
-73
-75
-75
-73
-71
-71
-67
-63
-65
-63
-61
-59
-57
-53
-49
-51
-47
-45
-43
-41
-35
-33
-37
-35
-35
-37
-35
-35
-37
-37
-39
-37
-37
-37
-37
-39
-41
-37
-39
-41
-39
-37
-39
-39
-41
-39
-37
-41
-39
-41
-41
-41
-43
-43
-43
-45
-45
-47
-49
-51
-49
-47
-49
-47
-43
-45
-45
-45
-45
-45
-45
-43
-43
-43
-43
-45
-43
-41
-41
-43
-43
-43
-43
-39
-39
-43
-39
-39
-39
-43
-41
-45
-45
-43
-41
-43
-41
-41
-43
-43
-41
-43
-41
-41
-43
-43
-43
-41
-41
-43
-41
-41
-41
-41
-41
-43
-45
-41
-41
-43
-41
-41
-41
-43
-39
-43
-41
-39
-39
-41
-37
-33
-29
-27
-19
-11
-3
9
33
67
99
121
125
135
129
115
93
65
35
-1
-23
-45
-53
-55
-61
-65
-67
-69
-69
-73
-73
-71
-73
-69
-67
-71
-69
-71
-69
-69
-65
-63
-65
-61
-61
-61
-57
-55
-55
-53
-49
-47
-47
-41
-39
-41
-37
-33
-31
-29
-29
-27
-31
-31
-31
-33
-35
-35
-35
-35
-35
-37
-37
-35
-37
-39
-37
-39
-41
-37
-33
-27
-19
-23
-35
-49
-53
-41
-43
-45
-53
-67
-81
-91
-87
-79
-85
-95
-95
-79
-69
-69
-65
-63
-57
-55
-51
-49
-43
-37
-35
-35
-35
-33
-31
-33
-29
-25
-27
-25
-21
-19
-15
-9
-5
-1
7
13
21
23
33
39
45
49
53
57
63
65
63
61
55
47
45
41
27
17
9
3
-7
-13
-19
-25
-27
-29
-31
-33
-33
-29
-23
-13
-15
-31
-47
-55
-45
-47
-47
-57
-51
-47
-33
-5
15
19
17
11
-11
-37
-53
-61
-59
-61
-61
-59
-61
-63
-57
-55
-55
-55
-51
-51
-53
-49
-49
-45
-39
-37
-33
-27
-23
-21
-19
-15
-13
-13
-9
-9
-11
-15
-17
-21
-27
-27
-33
-39
-37
-39
-45
-45
-49
-49
-53
-55
-55
-59
-63
-59
-65
-63
-63
-65
-63
-65
-69
-69
-67
-67
-69
-69
-67
-71
-69
-67
-69
-69
-71
-65
-69
-67
-67
-69
-65
-65
-67
-67
-69
-71
-73
-73
-75
-73
-75
-77
-79
-81
-77
-77
-81
-79
-77
-77
-79
-75
-79
-79
-75
-75
-77
-75
-75
-75
-73
-69
-73
-73
-71
-71
-75
-75
-75
-73
-69
-61
-51
-45
-33
-15
13
39
47
59
61
41
13
-15
-51
-75
-91
-95
-95
-97
-97
-101
-101
-103
-101
-101
-101
-101
-103
-107
-107
-109
-111
-111
-105
-105
-103
-101
-99
-101
-97
-95
-95
-93
-89
-91
-89
-87
-85
-85
-81
-77
-75
-71
-69
-69
-67
-67
-67
-69
-69
-67
-69
-69
-69
-71
-71
-67
-67
-65
-63
-61
-61
-61
-59
-63
-61
-59
-59
-59
-59
-55
-55
-51
-43
-39
-45
-47
-53
-55
-27
7
35
55
59
49
23
-5
-37
-61
-71
-71
-77
-75
-75
-77
-75
-75
-75
-75
-71
-69
-69
-67
-63
-63
-63
-63
-61
-57
-57
-57
-53
-53
-47
-45
-45
-41
-41
-39
-33
-33
-35
-35
-33
-37
-39
-37
-37
-41
-39
-39
-41
-41
-41
-39
-39
-41
-41
-43
-41
-39
-39
-39
-39
-39
-39
-37
-37
-35
-33
-33
-31
-31
-29
-31
-31
-27
-29
-29
-29
-27
-29
-25
-27
-29
-27
-25
-25
-23
-25
-25
-25
-23
-23
-25
-27
-23
-23
-23
-21
-19
-21
-23
-21
-21
-21
-21
-21
-19
-17
-17
-17
-17
-15
-17
-17
-15
-15
-13
-11
-9
-9
-9
-5
-7
-7
-9
-11
-7
1
5
7
13
19
27
51
69
85
97
97
85
63
37
11
-9
-15
-13
-19
-21
-21
-23
-25
-21
-19
-23
-23
-21
-21
-23
-19
-21
-23
-19
-15
-17
-15
-11
-11
-9
-5
-3
-3
1
3
7
7
11
13
13
21
23
23
23
25
25
25
25
25
25
29
29
29
31
31
29
27
31
29
31
33
33
29
29
27
25
27
27
25
25
27
29
29
27
29
29
29
31
29
29
29
29
27
29
29
27
27
29
29
29
33
33
33
33
31
29
27
27
27
27
27
25
27
31
29
27
25
27
23
25
27
25
21
23
21
19
19
21
17
13
13
15
15
17
17
19
17
19
15
15
19
15
13
13
15
11
11
11
11
9
9
7
5
5
7
3
5
5
3
3
1
1
-3
-7
-7
-7
-5
-3
-5
1
13
23
47
77
95
105
119
119
107
91
59
23
-9
-25
-27
-33
-37
-39
-43
-43
-45
-49
-51
-53
-53
-53
-55
-55
-55
-55
-51
-53
-53
-53
-53
-51
-51
-47
-49
-47
-45
-45
-43
-39
-37
-37
-35
-33
-33
-29
-29
-33
-37
-35
-39
-39
-39
-39
-41
-41
-39
-39
-39
-41
-41
-45
-43
-47
-45
-49
-47
-51
-53
-53
-57
-59
-61
-63
-65
-65
-65
-67
-67
-65
-69
-71
-69
-69
-71
-71
-67
-67
-67
-63
-63
-65
-65
-65
-63
-63
-63
-63
-67
-65
-65
-67
-65
-67
-69
-67
-67
-69
-67
-67
-67
-69
-69
-67
-73
-75
-73
-73
-71
-71
-71
-71
-67
-65
-67
-67
-67
-65
-67
-65
-65
-67
-65
-65
-69
-69
-67
-65
-67
-63
-63
-63
-63
-63
-67
-67
-69
-69
-71
-71
-71
-73
-69
-65
-67
-63
-61
-61
-59
-59
-57
-59
-57
-51
-49
-49
-45
-35
-25
-5
29
61
85
93
101
105
89
65
39
-3
-39
-63
-69
-73
-83
-81
-83
-85
-85
-81
-81
-83
-81
-79
-81
-77
-73
-75
-75
-71
-71
-71
-65
-65
-67
-65
-65
-65
-63
-61
-61
-59
-53
-51
-49
-43
-39
-39
-37
-37
-37
-37
-35
-39
-39
-37
-39
-39
-37
-35
-41
-37
-37
-39
-37
-37
-37
-43
-43
-41
-43
-43
-39
-37
-31
-29
-31
-31
-33
-39
-55
-77
-83
-97
-103
-93
-73
-67
-65
-67
-65
-55
-35
-23
-27
-33
-39
-45
-43
-37
-31
-31
-27
-27
-29
-25
-23
-21
-17
-13
-9
-5
1
5
