-61
-67
-69
-71
-71
-73
-75
-73
-75
-73
-75
-77
-77
-77
-79
-79
-79
-79
-83
-83
-81
-85
-83
-81
-85
-85
-85
-87
-87
-85
-83
-83
-81
-79
-75
-75
-71
-69
-71
-67
-63
-63
-59
-55
-53
-53
-51
-49
-53
-51
-53
-53
-53
-53
-55
-53
-53
-53
-55
-53
-51
-53
-55
-51
-51
-53
-51
-51
-53
-51
-49
-51
-47
-41
-37
-31
-17
-3
5
17
35
47
67
81
95
107
109
97
87
83
79
71
67
71
69
65
41
11
-21
-45
-59
-71
-77
-77
-83
-85
-83
-85
-89
-89
-91
-91
-91
-91
-93
-95
-93
-95
-97
-97
-99
-101
-101
-101
-103
-103
-105
-103
-103
-103
-103
-103
-101
-99
-97
-95
-89
-87
-85
-81
-79
-75
-71
-65
-63
-63
-59
-59
-59
-59
-57
-59
-59
-57
-61
-59
-57
-59
-59
-57
-55
-59
-55
-55
-57
-55
-55
-53
-55
-55
-53
-55
-53
-53
-55
-53
-55
-51
-51
-51
-51
-51
-51
-49
-53
-53
-51
-53
-51
-51
-51
-51
-51
-49
-51
-51
-49
-51
-53
-51
-51
-53
-53
-49
-51
-49
-49
-51
-53
-49
-49
-51
-51
-49
-49
-49
-47
-49
-47
-45
-49
-49
-45
-41
-41
-39
-37
-35
-35
-33
-33
-39
-39
-39
-47
-47
-47
-49
-49
-47
-49
-49
-49
-49
-49
-47
-47
-49
-49
-49
-47
-31
-3
31
79
119
101
43
-3
-35
-47
-55
-51
-49
-51
-51
-49
-55
-51
-51
-51
-51
-49
-49
-51
-49
-45
-47
-45
-43
-43
-45
-43
-41
-43
-41
-37
-37
-35
-33
-31
-31
-29
-25
-23
-21
-17
-15
-15
-11
-9
-9
-5
-3
-3
-3
-1
-5
-7
-7
-13
-17
-19
-23
-27
-31
-33
-39
-41
-39
-43
-47
-43
-45
-45
-47
-45
-47
-47
-45
-47
-45
-45
-41
-43
-43
-41
-43
-43
-39
-41
-43
-41
-39
-37
-33
-31
-31
-27
-25
-29
-27
-31
-31
-35
-35
-39
-39
-43
-39
-37
-31
-21
-9
1
15
29
35
49
65
77
91
103
107
117
129
143
143
113
63
23
-17
-43
-59
-63
-65
-69
-71
-71
-73
-75
-77
-77
-75
-77
-77
-77
-79
-79
-81
-81
-81
-83
-83
-85
-85
-83
-87
-83
-83
-85
-85
-79
-79
-79
-75
-71
-69
-63
-59
-55
-53
-49
-45
-47
-43
-41
-45
-43
-45
-45
-49
-45
-45
-47
-45
-45
-47
-47
-47
-47
-49
-45
-45
-47
-45
-45
-43
-39
-35
-33
-25
-13
1
13
25
37
47
61
71
79
89
87
81
73
71
67
59
63
71
79
73
57
27
-11
-33
-49
-59
-63
-67
-73
-75
-75
-79
-83
-81
-81
-85
-85
-87
-91
-89
-91
-93
-95
-93
-95
-93
-95
-93
-95
-95
-93
-93
-93
-87
-87
-87
-81
-79
-77
-75
-69
-67
-63
-59
-57
-57
-55
-51
-53
-53
-51
-53
-53
-53
-53
-55
-51
-53
-53
-53
-51
-53
-53
-51
-51
-53
-51
-51
-51
-53
-51
-49
-51
-49
-49
-51
-49
-49
-49
-47
-47
-47
-51
-47
-47
-51
-49
-49
-51
-49
-49
-51
-53
-47
-49
-49
-49
-47
-47
-49
-49
-49
-51
-47
-49
-47
-49
-49
-51
-51
-47
-49
-49
-45
-47
-49
-47
-45
-49
-47
-45
-47
-49
-47
-45
-47
-45
-47
-47
-47
-49
-49
-51
-47
-45
-45
-41
-39
-41
-35
-35
-35
-39
-39
-43
-45
-49
-49
-51
-49
-51
-51
-51
-51
-53
-51
-49
-49
-51
-53
-55
-51
-37
-9
37
85
117
103
51
-7
-41
-51
-51
-47
-47
-51
-51
-53
-55
-53
-53
-51
-53
-49
-51
-51
-49
-49
-51
-49
-47
-47
-47
-45
-47
-45
-43
-41
-41
-41
-37
-37
-35
-31
-31
-31
-27
-25
-25
-23
-19
-17
-17
-11
-13
-11
-7
-9
-11
-15
-17
-23
-25
-27
-31
-35
-35
-39
-43
-45
-43
-47
-49
-47
-47
-47
-47
-47
-47
-45
-45
-45
-43
-43
-43
-45
-43
-43
-45
-45
-45
-41
-41
-39
-39
-37
-33
-31
-31
-31
-31
-35
-37
-29
-27
-19
-5
7
19
31
43
51
69
89
103
105
97
87
81
77
71
67
67
65
51
33
-9
-45
-63
-71
-75
-79
-81
-81
-83
-85
-83
-87
-89
-89
-89
-91
-93
-93
-97
-97
-95
-99
-103
-101
-101
-105
-103
-103
-101
-103
-97
-95
-95
-89
-87
-83
-79
-71
-69
-63
-57
-55
-53
-49
-49
-51
-49
-51
-51
-53
-49
-51
-53
-53
-51
-53
-53
-51
-53
-51
-49
-49
-51
-49
-51
-51
-49
-49
-51
-51
-47
-47
-47
-45
-41
-39
-33
-27
-21
-11
3
17
31
43
49
67
79
95
109
111
103
93
81
77
71
65
67
75
71
53
31
-7
-37
-57
-67
-75
-77
-79
-81
-83
-83
-85
-87
-85
-89
-89
-89
-93
-93
-95
-93
-95
-97
-97
-95
-99
-99
-99
-101
-97
-97
-99
-97
-93
-91
-89
-85
-81
-77
-71
-65
-65
-61
-55
-55
-55
-53
-49
-51
-53
-51
-53
-51
-51
-51
-55
-53
-53
-57
-55
-55
-57
-57
-55
-57
-57
-53
-53
-55
-55
-53
-53
-51
-51
-53
-53
-51
-53
-51
-53
-51
-53
-51
-49
-49
-49
-49
-51
-51
-51
-49
-49
-49
-47
-47
-49
-49
-49
-49
-47
-47
-49
-49
-45
-47
-47
-47
-47
-47
-43
-39
-41
-39
-33
-35
-35
-35
-35
-43
-43
-45
-47
-49
-51
-53
-53
-49
-49
-51
-49
-47
-51
-49
-47
-49
-49
-49
-35
-13
13
57
99
109
75
29
-19
-37
-45
-51
-47
-45
-49
-51
-47
-49
-49
-49
-47
-51
-51
-49
-51
-47
-47
-49
-47
-45
-45
-47
-47
-43
-43
-41
-39
-39
-39
-35
-33
-33
-31
-29
-27
-25
-17
-19
-17
-13
-13
-13
-11
-7
-9
-7
-7
-9
-13
-17
-21
-25
-29
-33
-37
-41
-41
-43
-45
-47
-47
-49
-47
-47
-49
-49
-49
-49
-49
-47
-47
-49
-45
-45
-47
-45
-45
-47
-45
-43
-43
-41
-41
-39
-37
-35
-31
-31
-31
-33
-33
-41
-39
-43
-47
-47
-45
-45
-35
-29
-17
-7
7
23
29
39
51
63
79
93
103
101
111
121
129
137
123
69
27
-11
-39
-59
-67
-71
-73
-77
-77
-81
-81
-81
-81
-85
-83
-83
-87
-87
-85
-87
-89
-89
-91
-93
-93
-95
-95
-95
-95
-97
-99
-97
-97
-97
-95
-95
-95
-93
-87
-87
-81
-77
-73
-69
-63
-63
-61
-59
-57
-57
-57
-55
-59
-59
-57
-59
-59
-59
-57
-59
-57
-55
-57
-57
-55
-55
-57
-55
-55
-57
-57
-51
-51
-47
-39
-33
-27
-13
-1
11
23
39
47
55
71
83
91
97
93
87
77
75
69
63
67
69
59
37
11
-29
-51
-65
-73
-79
-81
-85
-87
-85
-87
-91
-93
-91
-93
-95
-95
-97
-99
-99
-99
-99
-99
-99
-103
-105
-101
-103
-105
-103
-103
-105
-103
-99
-97
-95
-93
-91
-91
-85
-83
-77
-75
-69
-67
-67
-63
-61
-61
-59
-59
-63
-59
-61
-59
-59
-57
-59
-61
-59
-59
-61
-63
-59
-61
-61
-57
-59
-59
-59
-57
-59
-59
-55
-57
-59
-55
-57
-57
-55
-55
-57
-53
-51
-53
-55
-53
-53
-53
-53
-53
-55
-51
-53
-53
-53
-53
-53
-53
-51
-51
-53
-51
-49
-53
-47
-49
-49
-51
-49
-49
-51
-49
-47
-49
-49
-47
-47
-47
-47
-45
-47
-41
-41
-41
-35
-35
-35
-37
-35
-39
-41
-39
-41
-45
-45
-47
-49
-51
-49
-49
-49
-49
-47
-47
-47
-47
-47
-47
-47
-37
-21
17
55
101
123
95
29
-21
-39
-45
-49
-45
-45
-47
-49
-47
-49
-51
-47
-49
-49
-47
-47
-47
-47
-45
-45
-45
-43
-45
-45
-41
-41
-41
-41
-39
-39
-35
-33
-31
-29
-27
-25
-25
-19
-17
-15
-13
-9
-9
-5
-3
-3
-5
-3
-1
-5
-11
-9
-15
-21
-23
-27
-31
-35
-35
-39
-41
-39
-43
-45
-45
-45
-45
-43
-43
-43
-43
-41
-41
-43
-39
-41
-43
-43
-39
-39
-39
-39
-39
-35
-33
-33
-33
-31
-27
-27
-27
-27
-31
-31
-33
-35
-41
-39
-41
-43
-45
-43
-35
-31
-19
-7
1
13
25
31
41
51
61
75
93
105
117
127
141
155
153
113
59
15
-23
-43
-53
-57
-59
-65
-67
-67
-71
-71
-71
-69
-71
-71
-71
-75
-75
-73
-77
-77
-77
-81
-83
-83
-83
-83
-83
-81
-85
-87
-85
-85
-83
-81
-81
-79
-79
-77
-75
-73
-67
-63
-61
-55
-53
-51
-47
-45
-45
-43
-43
-45
-45
-45
-43
-47
-45
-45
-47
-47
-45
-47
-47
-45
-45
-49
-47
-45
-45
-47
-45
-45
-45
-45
-43
-45
-41
-37
-33
-27
-15
-5
7
19
31
43
51
67
75
89
97
99
89
81
75
71
65
63
59
67
65
47
25
-11
-39
-57
-65
-69
-73
-77
-75
-79
-81
-81
-81
-83
-85
-83
-87
-87
-85
-87
-89
-89
-91
-91
-93
-93
-91
-91
-89
-91
-91
-87
-89
-87
-83
-81
-81
-79
-73
-71
-71
-65
-59
-57
-55
-49
-51
-49
-47
-47
-47
-49
-49
-51
-49
-49
-49
-49
-49
-51
-49
-47
-49
-49
-47
-51
-49
-49
-47
-49
-47
-47
-47
-47
-45
-47
-47
-47
-45
-45
-45
-45
-43
-45
-45
-45
-47
-45
-43
-47
-45
-45
-47
-45
-45
-45
-47
-47
-47
-49
-47
-45
-45
-49
-47
-47
-47
-49
-45
-47
-47
-47
-49
-47
-47
-43
-47
-45
-43
-43
-39
-37
-35
-33
-29
-27
-31
-31
-33
-37
-37
-39
-39
-47
-43
-45
-47
-45
-43
-45
-45
-43
-43
-47
-45
-45
-49
-45
-31
1
49
99
119
81
25
-23
-43
-49
-45
-45
-45
-49
-49
-51
-47
-51
-51
-49
-47
-49
-47
-47
-47
-47
-45
-43
-45
-45
-45
-43
-43
-39
-39
-37
-33
-35
-35
-31
-29
-31
-27
-21
-19
-19
-15
-13
-13
-9
-7
-9
-9
-5
-9
-7
-9
-11
-17
-19
-23
-29
-33
-37
-39
-41
-41
-45
-45
-45
-47
-49
-49
-47
-49
-49
-47
-45
-47
-47
-47
-47
-47
-45
-45
-47
-43
-45
-45
-41
-39
-39
-37
-31
-33
-31
-31
-33
-37
-37
-37
-43
-43
-45
-47
-45
-37
-29
-19
-7
9
19
29
45
55
77
91
103
113
125
135
141
153
129
67
11
-23
-45
-61
-63
-67
-71
-71
-71
-77
-77
-77
-77
-81
-79
-79
-83
-81
-83
-85
-85
-85
-87
-89
-89
-91
-93
-93
-91
-93
-93
-91
-89
-87
-81
-81
-79
-75
-69
-67
-63
-57
-53
-55
-49
-47
-49
-49
-45
-49
-49
-47
-49
-49
-47
-49
-51
-51
-47
-51
-49
-49
-49
-53
-51
-51
-51
-49
-47
-49
-49
-47
-43
-35
-23
-11
1
15
33
43
55
73
89
103
109
105
95
85
77
69
63
63
67
69
59
35
1
-31
-51
-65
-71
-75
-79
-81
-79
-83
-85
-85
-87
-89
-89
-89
-91
-95
-91
-95
-95
-95
-97
-99
-97
-97
-99
-99
-99
-99
-101
-97
-95
-95
-89
-87
-85
-81
-71
-69
-67
-61
-55
-55
-51
-49
-49
-49
-49
-49
-51
-47
-45
-49
-49
-47
-49
-49
-49
-47
-47
-47
-49
-47
-47
-47
-47
-47
-45
-45
-47
-45
-43
-47
-43
-43
-45
-45
-43
-45
-45
-43
-45
-45
-43
-43
-45
-45
-43
-47
-45
-43
-45
-47
-45
-45
-45
-45
-45
-45
-47
-45
-47
-47
-45
-45
-47
-45
-41
-43
-41
-37
-35
-37
-31
-27
-29
-29
-29
-33
-37
-37
-39
-41
-43
-43
-45
-45
-45
-45
-45
-41
-41
-45
-45
-43
-43
-45
-41
-27
-1
41
85
113
97
37
-15
-35
-43
-47
-45
-41
-43
-49
-49
-45
-47
-49
-47
-47
-47
-45
-45
-47
-45
-45
-45
-45
-39
-41
-41
-37
-37
-39
-35
-33
-33
-29
-27
-25
-21
-19
-15
-15
-9
-7
-7
-1
-1
-3
-1
1
-5
-13
-17
-23
-27
-31
-35
-37
-41
-39
-43
-43
-45
-45
-47
-45
-43
-45
-47
-43
-45
-45
-45
-47
-45
-47
-47
-47
-49
-45
-45
-45
-41
-39
-35
-35
-31
-35
-35
-33
-39
-41
-45
-45
-49
-47
-47
-39
-33
-19
-9
5
19
27
39
51
69
83
95
99
103
113
127
135
133
93
35
-11
-41
-59
-63
-73
-73
-75
-81
-79
-79
-83
-81
-81
-83
-85
-85
-87
-87
-89
-89
-95
-93
-91
-95
-97
-97
-95
-99
-99
-97
-99
-97
-97
-95
-95
-91
-89
-87
-83
-79
-75
-69
-63
-63
-61
-57
-59
-57
-57
-55
-59
-59
-55
-59
-61
-59
-59
-59
-57
-57
-57
-59
-57
-57
-57
-57
-61
-59
-57
-55
-55
-53
-43
-35
-29
-17
-3
7
19
31
41
51
69
79
83
87
79
69
65
65
59
59
65
65
55
35
5
-27
-49
-65
-77
-85
-89
-91
-93
-95
-97
-99
-99
-99
-99
-101
-99
-103
-107
-105
-105
-109
-107
-107
-111
-109
-109
-111
-113
-109
-111
-109
-107
-107
-107
-105
-101
-101
-97
-91
-89
-87
-79
-75
-75
-71
-67
-69
-67
-65
-65
-67
-63
-63
-65
-63
-63
-63
-65
-63
-63
-67
-63
-61
-61
-63
-63
-63
-61
-59
-59
-61
-59
-61
-61
-59
-57
-59
-57
-57
-59
-57
-55
-55
-57
-57
-57
-57
-57
-55
-57
-57
-57
-55
-57
-55
-55
-57
-57
-55
-55
-57
-55
-55
-57
-55
-55
-57
-55
-53
-55
-55
-55
-55
-55
-53
-53
-55
-55
-53
-55
-55
-53
-53
-51
-53
-49
-49
-45
-41
-45
-43
-39
-37
-39
-39
-37
-41
-39
-41
-45
-47
-45
-47
-51
-51
-49
-53
-53
-49
-49
-51
-49
-49
-51
-49
-51
-47
-29
-1
35
77
115
115
73
21
-27
-47
-51
-51
-53
-49
-49
-53
-53
-53
-51
-53
-51
-51
-51
-51
-49
-51
-49
-47
-47
-47
-45
-43
-43
-43
-43
-41
-39
-35
-35
-37
-31
-31
-31
-29
-25
-25
-23
-21
-17
-15
-15
-11
-11
-9
-3
-3
-3
-1
-1
-3
-3
-7
-13
-15
-17
-23
-27
-31
-33
-39
-41
-43
-43
-43
-43
-45
-47
-45
-43
-43
-43
-43
-45
-43
-41
-41
-41
-41
-41
-41
-39
-39
-39
-37
-35
-35
-33
-33
-31
-31
-27
-29
-31
-33
-31
-35
-39
-39
-43
-41
-39
-31
-25
-11
1
13
21
31
43
53
69
83
95
101
107
113
123
137
145
115
65
23
-19
-47
-59
-67
-69
-71
-71
-75
-75
-73
-77
-79
-77
-79
-75
-77
-79
-79
-81
-79
-83
-83
-83
-85
-89
-85
-87
-87
-87
-87
-87
-85
-85
-85
-83
-81
-77
-77
-73
-69
-67
-63
-59
-57
-51
-49
-49
-47
-49
-47
-49
-49
-49
-51
-49
-53
-53
-53
-51
-51
-53
-51
-49
-51
-53
-49
-51
-49
-47
-47
-51
-49
-49
-49
-47
-45
-41
-35
-27
-17
-9
3
15
31
39
51
63
71
89
99
97
93
85
75
69
61
57
53
63
63
41
19
-15
-43
-59
-67
-71
-77
-77
-81
-85
-83
-85
-87
-87
-89
-87
-91
-91
-91
-93
-93
-95
-95
-95
-95
-95
-95
-95
-95
-97
-93
-93
-93
-89
-87
-87
-85
-77
-75
-73
-65
-59
-59
-57
-53
-53
-53
-49
-49
-51
-51
-49
-53
-51
-51
-51
-51
-49
-51
-53
-51
-47
-49
-49
-49
-51
-49
-47
-49
-51
-51
-49
-49
-49
-49
-49
-49
-49
-49
-49
-49
-49
-47
-47
-47
-49
-47
-47
-47
-49
-45
-47
-47
-47
-47
-45
-47
-43
-43
-45
-43
-45
-47
-43
-43
-45
-45
-45
-45
-45
-41
-43
-43
-39
-35
-37
-35
-33
-31
-33
-33
-33
-39
-41
-41
-45
-47
-45
-47
-49
-47
-47
-49
-47
-49
-49
-47
-45
-49
-53
-43
-29
1
45
97
117
79
27
-25
-45
-49
-51
-49
-47
-51
-51
-53
-49
-51
-51
-51
-47
-51
-47
-49
-49
-47
-45
-47
-47
-43
-43
-43
-41
-39
-41
-41
-35
-33
-35
-29
-27
-27
-23
-23
-19
-19
-17
-15
-13
-13
-11
-11
-7
-9
-9
-11
-11
-15
-21
-23
-29
-35
-37
-41
-45
-43
-45
-47
-47
-45
-47
-49
-51
-47
-49
-47
-49
-49
-49
-49
-47
-47
-45
-45
-47
-45
-45
-45
-45
-41
-39
-39
-39
-33
-33
-31
-31
-33
-35
-35
-37
-45
-47
-47
-49
-47
-45
-41
-33
-23
-11
1
15
21
31
43
53
67
79
97
111
121
135
149
153
123
63
7
-27
-45
-55
-61
-65
-67
-71
-75
-77
-75
-77
-77
-75
-79
-77
-77
-79
-83
-83
-83
-85
-85
-85
-87
-87
-85
-89
-89
-87
-89
-91
-89
-87
-89
-87
-85
-83
-81
-77
-75
-71
-69
-65
-61
-57
-53
-53
-53
-51
-49
-53
-51
-51
-53
-53
-53
-55
-55
-51
-51
-53
-51
-51
-53
-51
-51
-51
-51
-47
-49
-49
-47
-45
-45
-43
-33
-29
-17
-5
5
17
31
43
51
67
83
93
101
99
93
83
79
75
69
65
71
73
61
39
7
-29
-47
-61
-69
-73
-75
-79
-79
-81
-83
-85
-83
-85
-89
-89
-89
-91
-93
-91
-95
-95
-97
-95
-99
-97
-97
-101
-101
-99
-99
-101
-95
-95
-95
-91
-87
-83
-79
-73
-71
-67
-59
-57
-57
-53
-49
-51
-49
-47
-47
-49
-47
-49
-49
-51
-49
-49
-51
-49
-49
-49
-49
-49
-49
-47
-47
-47
-49
-47
-47
-49
-47
-47
-49
-45
-45
-45
-47
-47
-45
-45
-43
-45
-45
-43
-43
-45
-45
-45
-43
-45
-41
-41
-43
-43
-43
-45
-45
-41
-43
-45
-43
-41
-45
-41
-39
-43
-41
-39
-41
-41
-41
-39
-41
-39
-39
-41
-41
-39
-39
-37
-31
-31
-31
-27
-27
-29
-29
-31
-33
-35
-37
-39
-43
-41
-43
-45
-41
-41
-45
-43
-43
-39
-43
-45
-43
-47
-43
-29
-7
25
63
103
121
77
17
-23
-37
-43
-45
-41
-41
-45
-45
-43
-45
-45
-43
-43
-41
-43
-43
-41
-45
-39
-39
-41
-39
-37
-37
-39
-35
-37
-37
-33
-33
-37
-31
-27
-29
-27
-23
-21
-21
-15
-13
-13
-9
-7
-9
-7
-3
-7
-7
-9
-15
-19
-23
-27
-29
-35
-35
-41
-43
-41
-45
-45
-47
-45
-45
-49
-47
-47
-49
-47
-47
-47
-47
-45
-49
-47
-45
-47
-49
-47
-45
-45
-43
-39
-41
-39
-35
-31
-35
-31
-33
-37
-39
-39
-43
-41
-35
-29
-23
-9
1
13
25
39
49
65
83
99
103
95
87
85
85
85
85
85
57
11
-35
-61
-73
-79
-83
-87
-91
-91
-89
-91
-91
-89
-95
-95
-97
-99
-103
-101
-103
-105
-109
-107
-107
-107
-105
-103
-105
-103
-99
-99
-97
-89
-87
-83
-77
-73
-69
-65
-63
-63
-61
-57
-61
-61
-61
-59
-61
-61
-59
-59
-59
-57
-59
-61
-57
-57
-59
-61
-59
-57
-55
-51
-51
-47
-37
-27
-21
-7
7
23
35
47
55
71
89
97
95
89
83
71
63
63
61
65
73
61
37
3
-31
-53
-61
-67
-73
-79
-83
-83
-85
-85
-87
-91
-89
-89
-91
-95
-93
-93
-95
-97
-97
-99
-97
-97
-99
-101
-97
-99
-101
-101
-99
-99
-97
-95
-93
-91
-87
-85
-79
-73
-67
-65
-63
-57
-57
-55
-51
-53
-55
-53
-53
-57
-55
-53
-55
-57
-55
-57
-57
-55
-53
-55
-53
-51
-53
-51
-51
-51
-51
-51
-51
-53
-53
-51
-51
-51
-49
-51
-51
-49
-47
-49
-49
-49
-49
-47
-47
-49
-49
-47
-47
-49
-47
-45
-47
-47
-45
-45
-47
-47
-45
-47
-45
-45
-45
-45
-43
-43
-45
-45
-41
-45
-41
-43
-43
-43
-43
-43
-43
-39
-35
-35
-35
-33
-31
-31
-29
-31
-31
-35
-35
-39
-39
-39
-45
-43
-43
-45
-43
-43
-43
-45
-41
-41
-43
-43
-43
-45
-43
-23
5
41
77
119
119
69
11
-27
-41
-43
-41
-41
-41
-41
-43
-43
-41
-43
-45
-41
-41
-41
-41
-39
-41
-39
-39
-41
-39
-37
-39
-39
-35
-33
-37
-35
-33
-33
-31
-27
-29
-29
-25
-23
-23
-21
-17
-15
-13
-9
-7
-7
-3
-3
-3
-1
1
-1
-3
-7
-13
-17
-21
-21
-31
-31
-33
-35
-39
-39
-39
-43
-41
-41
-45
-45
-41
-45
-43
-43
-43
-43
-41
-41
-43
-39
-39
-41
-41
-39
-39
-41
-37
-33
-33
-35
-31
-29
-29
-29
-31
-31
-33
-33
-37
-37
-41
-41
-39
-27
-19
-7
9
23
29
41
53
67
79
97
103
97
97
101
107
117
125
125
107
69
23
-17
-43
-57
-65
-67
-69
-73
-73
-75
-77
-79
-77
-79
-79
-81
-79
-83
-83
-81
-83
-87
-87
-87
-91
-89
-91
-93
-93
-93
-95
-97
-97
-95
-95
-97
-91
-93
-87
-85
-81
-83
-75
-71
-69
-63
-57
-55
-55
-51
-51
-53
-49
-49
-53
-53
-51
-51
-51
-53
-53
-51
-51
-53
-53
-51
-49
-53
-51
-51
-51
-55
-51
-51
-51
-51
-49
-53
-49
-47
-47
-47
-37
-31
-23
-13
1
15
31
41
49
61
75
89
99
99
93
79
69
63
57
47
49
55
63
63
45
15
-19
-45
-61
-71
-73
-77
-77
-79
-83
-83
-85
-85
-87
-89
-89
-87
-91
-91
-93
-93
-91
-95
-97
-97
-93
-95
-95
-93
-95
-95
-93
-91
-91
-89
-87
-85
-83
-79
-75
-73
-69
-61
-61
-57
-53
-51
-51
-49
-49
-49
-49
-47
-47
-49
-49
-49
-53
-49
-51
-53
-51
-49
-53
-51
-49
-51
-51
-51
-49
-49
-49
-45
-47
-47
-47
-47
-47
-45
-45
-47
-45
-45
-45
-47
-43
-47
-49
-45
-45
-47
-47
-45
-45
-47
-45
-47
-49
-45
-47
-47
-45
-45
-47
-45
-45
-47
-47
-45
-45
-43
-37
-39
-35
-33
-31
-33
-33
-33
-35
-39
-39
-41
-47
-47
-45
-49
-49
-49
-47
-49
-47
-47
-49
-47
-45
-47
-51
-43
-29
-3
39
83
115
97
45
-3
-33
-41
-49
-49
-47
-47
-51
-51
-49
-49
-49
-49
-49
-49
-47
-45
-47
-47
-47
-47
-47
-45
-45
-45
-43
-41
-43
-43
-41
-41
-39
-35
-33
-33
-31
-27
-29
-25
-19
-19
-21
-15
-13
-11
-9
-9
-11
-13
-11
-15
-19
-23
-29
-31
-35
-37
-41
-43
-45
-49
-49
-49
-49
-51
-49
-51
-49
-49
-49
-51
-51
-51
-49
-51
-49
-49
-49
-51
-45
-49
-47
-43
-45
-43
-39
-37
-37
-37
-35
-41
-43
-43
-49
-51
-49
-49
-51
-55
-55
-55
-55
-53
-51
-43
-33
-21
-11
1
11
19
41
79
119
165
177
131
51
-7
-37
-55
-57
-55
-59
-65
-63
-63
-67
-65
-65
-67
-65
-63
-63
-67
-63
-67
-69
-67
-65
-69
-67
-67
-69
-71
-69
-67
-67
-67
-65
-69
-65
-63
-61
-59
-55
-53
-51
-49
-49
-47
-45
-43
-47
-49
-45
-49
-53
-53
-53
-55
-55
-53
-53
-55
-51
-53
-53
-53
-53
-55
-55
-51
-53
-55
-53
-53
-51
-49
-47
-47
-41
-31
-21
-7
11
27
45
59
85
101
121
129
123
105
95
85
71
65
61
59
63
53
29
-5
-39
-61
-75
-77
-79
-83
-89
-85
-89
-91
-91
-89
-93
-91
-93
-95
-97
-97
-97
-99
-99
-101
-101
-103
-101
-103
-103
-103
-103
-101
-99
-97
-93
-91
-89
-85
-79
-73
-73
-65
-59
-59
-57
-55
-53
-55
-55
-51
-55
-53
-53
-55
-57
-55
-55
-55
-53
-51
-53
-49
-51
-51
-51
-51
-49
-51
-51
-51
-51
-49
-49
-49
-45
-47
-47
-47
-45
-45
-47
-45
-45
-45
-47
-45
-45
-47
-45
-47
-47
-45
-43
-45
-45
-43
-45
-47
-45
-45
-45
-43
-41
-39
-39
-37
-31
-33
-31
-27
-31
-31
-31
-37
-41
-43
-43
-45
-45
-45
-47
-47
-45
-49
-47
-45
-45
-47
-45
-47
-45
-27
3
43
91
123
99
33
-15
-37
-45
-43
-41
-45
-47
-47
-45
-47
-47
-43
-45
-47
-41
-45
-43
-41
-43
-45
-39
-39
-43
-39
-33
-37
-35
-31
-31
-29
-31
-27
-25
-23
-19
-15
-13
-11
-9
-9
-5
-1
-3
-1
1
-1
-1
-1
-7
-11
-17
-19
-27
-29
-31
-37
-37
-37
-39
-43
-41
-43
-47
-43
-41
-45
-43
-43
-43
-43
-41
-39
-41
-41
-39
-43
-41
-39
-35
-37
-33
-33
-35
-31
-27
-29
-29
-31
-33
-35
-39
-43
-47
-45
-45
-49
-49
-51
-49
-51
-51
-47
-43
-39
-31
-19
-5
7
21
43
75
119
155
169
139
63
9
-23
-43
-49
-51
-51
-57
-59
-59
-59
-59
-57
-57
-59
-57
-57
-57
-57
-57
-59
-57
-57
-57
-59
-57
-57
-59
-57
-55
-59
-55
-53
-53
-53
-51
-47
-47
-45
-43
-43
-39
-35
-35
-35
-33
-35
-37
-39
-37
-43
-43
-43
-45
-49
-45
-49
-51
-49
-45
-47
-47
-45
-47
-47
-47
-47
-49
-49
-47
-49
-47
-43
-39
-39
-31
-23
-13
-1
9
23
39
53
69
83
97
109
113
107
97
87
83
77
71
67
71
69
47
21
-13
-45
-63
-67
-73
-77
-79
-81
-81
-83
-85
-89
-89
-89
-91
-91
-91
-95
-97
-95
-97
-97
-95
-93
-93
-93
-89
-89
-89
-87
-83
-83
-81
-73
-71
-69
-65
-61
-63
-57
-55
-57
-55
-51
-55
-55
-51
-55
-55
-57
-55
-55
-55
-53
-55
-55
-51
-53
-53
-51
-53
-53
-51
-51
-53
-51
-49
-49
-51
-49
-49
-51
-49
-47
-51
-49
-45
-47
-49
-47
-49
-49
-45
-47
-49
-47
-45
-45
-49
-47
-47
-45
-45
-45
-47
-47
-45
-43
-45
-43
-43
-45
-43
-43
-47
-43
-43
-45
-47
-43
-45
-45
-43
-41
-39
-41
-37
-35
-33
-33
-33
-35
-37
-37
-41
-43
-45
-47
-47
-49
-47
-51
-47
-45
-47
-47
-45
-47
-47
-45
-51
-41
-19
15
55
105
115
71
17
-25
-45
-51
-49
-45
-47
-45
-43
-47
-49
-47
-47
-49
-45
-45
-47
-45
-45
-43
-45
-43
-41
-43
-41
-41
-39
-39
-35
-35
-35
-31
-31
-31
-27
-25
-25
-23
-19
-17
-15
-11
-11
-11
-7
-9
-5
-5
1
-1
-1
-1
-5
-11
-13
-17
-21
-25
-27
-33
-35
-35
-37
-41
-39
-39
-41
-41
-39
-43
-41
-41
-41
-41
-37
-39
-43
-39
-39
-41
-39
-37
-39
-39
-39
-37
-35
-35
-31
-31
-29
-25
-25
-27
-27
-27
-33
-33
-37
-39
-43
-43
-45
-47
-43
-43
-35
-25
-13
-1
11
21
31
41
49
59
79
109
137
155
167
163
113
49
5
-23
-45
-51
-51
-57
-59
-59
-63
-63
-61
-63
-65
-63
-63
-63
-65
-65
-67
-67
-65
-67
-67
-67
-67
-71
-71
-69
-71
-71
-71
-71
-69
-67
-65
-67
-61
-57
-59
-57
-53
-49
-47
-43
-39
-37
-37
-37
-39
-39
-39
-39
-39
-39
-37
-39
-39
-39
-39
-39
-39
-39
-39
-37
-37
-39
-39
-35
-37
-37
-33
-35
-33
-29
-27
-21
-15
-7
3
11
27
37
49
69
85
95
99
107
103
93
87
83
79
73
73
73
77
71
43
15
-13
-37
-51
-57
-61
-63
-65
-67
-71
-73
-73
-75
-77
-77
-77
-79
-81
-75
-81
-83
-79
-83
-85
-83
-83
-85
-83
-83
-85
-85
-83
-81
-81
-77
-77
-75
-71
-67
-63
-61
-55
-51
-51
-45
-43
-43
-41
-39
-41
-39
-39
-41
-43
-39
-43
-45
-43
-43
-45
-45
-43
-41
-43
-41
-41
-43
-41
-37
-39
-39
-39
-41
-39
-39
-37
-37
-37
-35
-37
-35
-35
-35
-35
-33
-35
-37
-33
-33
-35
-31
-31
-33
-33
-33
-33
-33
-33
-31
-35
-33
-33
-35
-35
-31
-35
-35
-33
-33
-33
-37
-35
-35
-35
-33
-33
-33
-31
-31
-27
-27
-23
-23
-21
-19
-19
-23
-23
-25
-31
-31
-33
-35
-37
-37
-37
-39
-35
-35
-37
-37
-33
-37
-35
-35
-37
-39
-35
-17
9
47
93
123
97
37
-5
-23
-33
-41
-39
-37
-39
-41
-43
-41
-45
-45
-43
-43
-43
-41
-41
-43
-41
-39
-41
-41
-41
-41
-41
-37
-39
-41
-39
-37
-37
-35
-33
-31
-31
-29
-25
-27
-23
-21
-21
-19
-15
-13
-11
-7
